1	995.0
2	995.0
3	995.0
4	995.0
5	995.0
6	995.0
7	995.0
8	995.0
9	1000.0
10	997.0
11	995.0
12	994.0
13	992.0
14	993.0
15	992.0
16	989.0
17	988.0
18	987.0
19	990.0
20	993.0
21	989.0
22	988.0
23	986.0
24	988.0
25	993.0
26	997.0
27	993.0
28	986.0
29	983.0
30	977.0
31	979.0
32	975.0
33	974.0
34	972.0
35	969.0
36	969.0
37	969.0
38	971.0
39	973.0
40	971.0
41	969.0
42	966.0
43	966.0
44	966.0
45	966.0
46	967.0
47	965.0
48	963.0
49	967.0
50	969.0
51	969.0
52	968.0
53	967.0
54	963.0
55	966.0
56	964.0
57	968.0
58	966.0
59	964.0
60	961.0
61	960.0
62	957.0
63	952.0
64	947.0
65	947.0
66	943.0
67	933.0
68	927.0
69	927.0
70	939.0
71	958.0
72	980.0
73	1010.0
74	1048.0
75	1099.0
76	1148.0
77	1180.0
78	1192.0
79	1177.0
80	1128.0
81	1058.0
82	991.0
83	951.0
84	937.0
85	939.0
86	950.0
87	958.0
88	959.0
89	957.0
90	955.0
91	958.0
92	959.0
93	961.0
94	962.0
95	960.0
96	957.0
97	956.0
98	959.0
99	955.0
100	957.0
101	958.0
102	957.0
103	958.0
104	959.0
105	958.0
106	958.0
107	955.0
108	953.0
109	957.0
110	959.0
111	963.0
112	960.0
113	960.0
114	958.0
115	956.0
116	957.0
117	956.0
118	955.0
119	953.0
120	953.0
121	956.0
122	958.0
123	958.0
124	958.0
125	956.0
126	954.0
127	959.0
128	959.0
129	958.0
130	958.0
131	957.0
132	957.0
133	956.0
134	958.0
135	956.0
136	954.0
137	953.0
138	954.0
139	955.0
140	958.0
141	960.0
142	957.0
143	958.0
144	955.0
145	958.0
146	957.0
147	957.0
148	955.0
149	955.0
150	953.0
151	956.0
152	956.0
153	957.0
154	958.0
155	954.0
156	954.0
157	955.0
158	957.0
159	957.0
160	957.0
161	954.0
162	953.0
163	953.0
164	955.0
165	955.0
166	957.0
167	954.0
168	952.0
169	952.0
170	952.0
171	951.0
172	952.0
173	950.0
174	947.0
175	950.0
176	952.0
177	953.0
178	952.0
179	949.0
180	949.0
181	951.0
182	951.0
183	952.0
184	952.0
185	951.0
186	950.0
187	953.0
188	958.0
189	959.0
190	959.0
191	957.0
192	956.0
193	961.0
194	964.0
195	964.0
196	966.0
197	965.0
198	966.0
199	967.0
200	969.0
201	973.0
202	974.0
203	974.0
204	971.0
205	973.0
206	975.0
207	978.0
208	975.0
209	975.0
210	973.0
211	973.0
212	976.0
213	974.0
214	973.0
215	975.0
216	973.0
217	974.0
218	974.0
219	971.0
220	972.0
221	972.0
222	971.0
223	970.0
224	971.0
225	972.0
226	969.0
227	968.0
228	966.0
229	969.0
230	970.0
231	972.0
232	968.0
233	968.0
234	967.0
235	969.0
236	969.0
237	971.0
238	970.0
239	967.0
240	966.0
241	968.0
242	969.0
243	967.0
244	968.0
245	964.0
246	964.0
247	963.0
248	965.0
249	964.0
250	962.0
251	962.0
252	963.0
253	965.0
254	967.0
255	967.0
256	966.0
257	965.0
258	962.0
259	966.0
260	965.0
261	964.0
262	963.0
263	962.0
264	959.0
265	962.0
266	964.0
267	966.0
268	962.0
269	959.0
270	958.0
271	961.0
272	964.0
273	963.0
274	962.0
275	960.0
276	958.0
277	959.0
278	961.0
279	962.0
280	963.0
281	963.0
282	962.0
283	964.0
284	963.0
285	966.0
286	964.0
287	964.0
288	963.0
289	963.0
290	966.0
291	968.0
292	965.0
293	963.0
294	961.0
295	963.0
296	965.0
297	966.0
298	968.0
299	970.0
300	969.0
301	969.0
302	970.0
303	974.0
304	974.0
305	973.0
306	979.0
307	980.0
308	983.0
309	984.0
310	983.0
311	981.0
312	978.0
313	980.0
314	979.0
315	979.0
316	979.0
317	978.0
318	977.0
319	976.0
320	977.0
321	980.0
322	982.0
323	983.0
324	975.0
325	967.0
326	967.0
327	964.0
328	962.0
329	958.0
330	958.0
331	959.0
332	961.0
333	960.0
334	961.0
335	959.0
336	956.0
337	955.0
338	956.0
339	956.0
340	954.0
341	955.0
342	953.0
343	958.0
344	957.0
345	958.0
346	960.0
347	955.0
348	953.0
349	956.0
350	958.0
351	959.0
352	958.0
353	954.0
354	951.0
355	952.0
356	948.0
357	939.0
358	935.0
359	929.0
360	922.0
361	917.0
362	923.0
363	941.0
364	964.0
365	992.0
366	1021.0
367	1071.0
368	1122.0
369	1168.0
370	1199.0
371	1212.0
372	1205.0
373	1175.0
374	1122.0
375	1057.0
376	1002.0
377	970.0
378	946.0
379	934.0
380	929.0
381	933.0
382	939.0
383	946.0
384	946.0
385	947.0
386	946.0
387	948.0
388	948.0
389	948.0
390	945.0
391	947.0
392	947.0
393	947.0
394	949.0
395	945.0
396	942.0
397	942.0
398	944.0
399	945.0
400	946.0
401	943.0
402	945.0
403	947.0
404	949.0
405	946.0
406	946.0
407	943.0
408	942.0
409	942.0
410	946.0
411	946.0
412	945.0
413	943.0
414	941.0
415	944.0
416	942.0
417	943.0
418	942.0
419	941.0
420	942.0
421	944.0
422	944.0
423	945.0
424	946.0
425	943.0
426	942.0
427	946.0
428	946.0
429	947.0
430	947.0
431	942.0
432	943.0
433	945.0
434	946.0
435	949.0
436	946.0
437	945.0
438	942.0
439	944.0
440	946.0
441	946.0
442	947.0
443	943.0
444	941.0
445	941.0
446	944.0
447	945.0
448	943.0
449	941.0
450	940.0
451	940.0
452	942.0
453	941.0
454	939.0
455	940.0
456	937.0
457	938.0
458	938.0
459	940.0
460	938.0
461	934.0
462	933.0
463	934.0
464	937.0
465	935.0
466	934.0
467	933.0
468	930.0
469	932.0
470	933.0
471	934.0
472	933.0
473	930.0
474	929.0
475	932.0
476	934.0
477	935.0
478	936.0
479	937.0
480	936.0
481	942.0
482	945.0
483	950.0
484	951.0
485	952.0
486	951.0
487	956.0
488	959.0
489	961.0
490	960.0
491	958.0
492	958.0
493	960.0
494	962.0
495	964.0
496	964.0
497	960.0
498	960.0
499	961.0
500	963.0
501	963.0
502	965.0
503	960.0
504	958.0
505	963.0
506	962.0
507	964.0
508	964.0
509	960.0
510	959.0
511	962.0
512	963.0
513	961.0
514	963.0
515	961.0
516	961.0
517	962.0
518	965.0
519	966.0
520	963.0
521	962.0
522	960.0
523	961.0
524	964.0
525	961.0
526	961.0
527	961.0
528	958.0
529	961.0
530	960.0
531	961.0
532	959.0
533	957.0
534	956.0
535	957.0
536	957.0
537	958.0
538	959.0
539	955.0
540	954.0
541	955.0
542	957.0
543	958.0
544	958.0
545	955.0
546	955.0
547	955.0
548	960.0
549	958.0
550	957.0
551	956.0
552	953.0
553	957.0
554	958.0
555	958.0
556	957.0
557	953.0
558	952.0
559	953.0
560	954.0
561	956.0
562	955.0
563	955.0
564	955.0
565	955.0
566	958.0
567	958.0
568	957.0
569	955.0
570	954.0
571	954.0
572	956.0
573	958.0
574	955.0
575	955.0
576	953.0
577	954.0
578	956.0
579	958.0
580	956.0
581	956.0
582	956.0
583	958.0
584	957.0
585	958.0
586	957.0
587	955.0
588	955.0
589	956.0
590	958.0
591	961.0
592	965.0
593	964.0
594	965.0
595	967.0
596	969.0
597	971.0
598	971.0
599	971.0
600	973.0
601	974.0
602	976.0
603	979.0
604	981.0
605	976.0
606	975.0
607	976.0
608	975.0
609	977.0
610	975.0
611	974.0
612	969.0
613	969.0
614	971.0
615	974.0
616	979.0
617	980.0
618	978.0
619	971.0
620	970.0
621	968.0
622	967.0
623	963.0
624	960.0
625	956.0
626	958.0
627	957.0
628	957.0
629	953.0
630	950.0
631	952.0
632	955.0
633	954.0
634	953.0
635	951.0
636	949.0
637	948.0
638	950.0
639	951.0
640	951.0
641	948.0
642	947.0
643	948.0
644	949.0
645	953.0
646	950.0
647	946.0
648	943.0
649	942.0
650	937.0
651	931.0
652	926.0
653	920.0
654	913.0
655	910.0
656	919.0
657	943.0
658	974.0
659	1006.0
660	1048.0
661	1106.0
662	1162.0
663	1201.0
664	1216.0
665	1194.0
666	1128.0
667	1034.0
668	960.0
669	924.0
670	923.0
671	935.0
672	941.0
673	945.0
674	946.0
675	945.0
676	946.0
677	945.0
678	943.0
679	945.0
680	943.0
681	946.0
682	945.0
683	945.0
684	942.0
685	943.0
686	944.0
687	944.0
688	941.0
689	943.0
690	940.0
691	941.0
692	943.0
693	943.0
694	940.0
695	940.0
696	937.0
697	940.0
698	942.0
699	942.0
700	943.0
701	939.0
702	938.0
703	940.0
704	941.0
705	942.0
706	942.0
707	939.0
708	940.0
709	944.0
710	945.0
711	944.0
712	944.0
713	945.0
714	941.0
715	943.0
716	946.0
717	944.0
718	944.0
719	941.0
720	939.0
721	939.0
722	941.0
723	941.0
724	942.0
725	939.0
726	939.0
727	940.0
728	941.0
729	944.0
730	944.0
731	942.0
732	939.0
733	942.0
734	943.0
735	945.0
736	944.0
737	944.0
738	943.0
739	947.0
740	944.0
741	946.0
742	946.0
743	944.0
744	941.0
745	943.0
746	943.0
747	942.0
748	941.0
749	940.0
750	940.0
751	939.0
752	941.0
753	941.0
754	942.0
755	937.0
756	938.0
757	937.0
758	940.0
759	940.0
760	940.0
761	940.0
762	939.0
763	939.0
764	941.0
765	945.0
766	945.0
767	946.0
768	949.0
769	952.0
770	956.0
771	957.0
772	958.0
773	957.0
774	957.0
775	959.0
776	960.0
777	963.0
778	963.0
779	961.0
780	962.0
781	963.0
782	964.0
783	964.0
784	964.0
785	962.0
786	962.0
787	962.0
788	961.0
789	964.0
790	963.0
791	961.0
792	960.0
793	959.0
794	962.0
795	963.0
796	963.0
797	960.0
798	959.0
799	963.0
800	962.0
801	965.0
802	962.0
803	959.0
804	958.0
805	960.0
806	960.0
807	960.0
808	959.0
809	954.0
810	954.0
811	956.0
812	957.0
813	958.0
814	957.0
815	956.0
816	952.0
817	954.0
818	954.0
819	953.0
820	952.0
821	953.0
822	951.0
823	953.0
824	954.0
825	956.0
826	953.0
827	954.0
828	951.0
829	951.0
830	954.0
831	953.0
832	954.0
833	950.0
834	948.0
835	950.0
836	952.0
837	951.0
838	952.0
839	951.0
840	948.0
841	950.0
842	951.0
843	954.0
844	954.0
845	954.0
846	950.0
847	951.0
848	955.0
849	955.0
850	956.0
851	953.0
852	951.0
853	952.0
854	953.0
855	953.0
856	953.0
857	949.0
858	947.0
859	953.0
860	952.0
861	953.0
862	952.0
863	952.0
864	950.0
865	952.0
866	955.0
867	953.0
868	955.0
869	955.0
870	955.0
871	956.0
872	962.0
873	963.0
874	963.0
875	962.0
876	963.0
877	966.0
878	967.0
879	969.0
880	968.0
881	968.0
882	969.0
883	971.0
884	973.0
885	975.0
886	972.0
887	971.0
888	969.0
889	968.0
890	971.0
891	970.0
892	969.0
893	968.0
894	969.0
895	968.0
896	969.0
897	971.0
898	973.0
899	976.0
900	972.0
901	968.0
902	962.0
903	962.0
904	955.0
905	952.0
906	948.0
907	947.0
908	948.0
909	950.0
910	949.0
911	947.0
912	946.0
913	945.0
914	947.0
915	947.0
916	947.0
917	945.0
918	943.0
919	944.0
920	949.0
921	949.0
922	946.0
923	945.0
924	941.0
925	943.0
926	944.0
927	946.0
928	943.0
929	939.0
930	932.0
931	929.0
932	923.0
933	922.0
934	919.0
935	916.0
936	904.0
937	895.0
938	898.0
939	909.0
940	925.0
941	947.0
942	970.0
943	1001.0
944	1042.0
945	1098.0
946	1151.0
947	1186.0
948	1196.0
949	1178.0
950	1119.0
951	1037.0
952	963.0
953	924.0
954	920.0
955	929.0
956	942.0
957	946.0
958	946.0
959	944.0
960	942.0
961	943.0
962	947.0
963	946.0
964	945.0
965	943.0
966	942.0
967	943.0
968	944.0
969	946.0
970	945.0
971	942.0
972	941.0
973	942.0
974	945.0
975	943.0
976	942.0
977	943.0
978	943.0
979	942.0
980	946.0
981	947.0
982	946.0
983	945.0
984	944.0
985	944.0
986	944.0
987	945.0
988	945.0
989	943.0
990	943.0
991	944.0
992	945.0
993	947.0
994	949.0
995	947.0
996	945.0
997	946.0
998	947.0
999	949.0
1000	947.0
1001	945.0
1002	945.0
1003	947.0
1004	949.0
1005	949.0
1006	947.0
1007	945.0
1008	946.0
1009	946.0
1010	951.0
1011	949.0
1012	947.0
1013	945.0
1014	948.0
1015	947.0
1016	949.0
1017	948.0
1018	946.0
1019	948.0
1020	949.0
1021	949.0
1022	949.0
1023	949.0
1024	948.0
1025	946.0
1026	946.0
1027	951.0
1028	950.0
1029	949.0
1030	947.0
1031	946.0
1032	946.0
1033	949.0
1034	951.0
1035	947.0
1036	948.0
1037	946.0
1038	949.0
1039	949.0
1040	951.0
1041	950.0
1042	947.0
1043	945.0
1044	947.0
1045	947.0
1046	950.0
1047	951.0
1048	950.0
1049	949.0
1050	954.0
1051	957.0
1052	960.0
1053	961.0
1054	960.0
1055	959.0
1056	961.0
1057	965.0
1058	967.0
1059	964.0
1060	965.0
1061	967.0
1062	967.0
1063	968.0
1064	970.0
1065	968.0
1066	966.0
1067	965.0
1068	965.0
1069	966.0
1070	968.0
1071	966.0
1072	965.0
1073	962.0
1074	965.0
1075	967.0
1076	968.0
1077	969.0
1078	965.0
1079	963.0
1080	964.0
1081	965.0
1082	965.0
1083	967.0
1084	964.0
1085	963.0
1086	964.0
1087	965.0
1088	964.0
1089	963.0
1090	961.0
1091	962.0
1092	961.0
1093	965.0
1094	964.0
1095	962.0
1096	958.0
1097	956.0
1098	958.0
1099	960.0
1100	960.0
1101	961.0
1102	959.0
1103	957.0
1104	958.0
1105	961.0
1106	960.0
1107	960.0
1108	958.0
1109	955.0
1110	956.0
1111	957.0
1112	958.0
1113	957.0
1114	955.0
1115	954.0
1116	955.0
1117	956.0
1118	957.0
1119	957.0
1120	958.0
1121	957.0
1122	956.0
1123	957.0
1124	960.0
1125	956.0
1126	956.0
1127	954.0
1128	951.0
1129	952.0
1130	955.0
1131	955.0
1132	954.0
1133	954.0
1134	954.0
1135	956.0
1136	956.0
1137	955.0
1138	955.0
1139	948.0
1140	952.0
1141	952.0
1142	955.0
1143	955.0
1144	954.0
1145	953.0
1146	955.0
1147	958.0
1148	958.0
1149	957.0
1150	957.0
1151	956.0
1152	958.0
1153	960.0
1154	966.0
1155	966.0
1156	964.0
1157	963.0
1158	967.0
1159	968.0
1160	969.0
1161	968.0
1162	969.0
1163	970.0
1164	971.0
1165	974.0
1166	978.0
1167	975.0
1168	976.0
1169	973.0
1170	973.0
1171	975.0
1172	977.0
1173	973.0
1174	971.0
1175	972.0
1176	973.0
1177	970.0
1178	971.0
1179	968.0
1180	973.0
1181	974.0
1182	975.0
1183	971.0
1184	968.0
1185	964.0
1186	961.0
1187	959.0
1188	957.0
1189	955.0
1190	958.0
1191	957.0
1192	955.0
1193	952.0
1194	954.0
1195	956.0
1196	957.0
1197	955.0
1198	952.0
1199	951.0
1200	949.0
1201	950.0
1202	951.0
1203	951.0
1204	948.0
1205	949.0
1206	949.0
1207	951.0
1208	950.0
1209	952.0
1210	950.0
1211	948.0
1212	951.0
1213	952.0
1214	954.0
1215	953.0
1216	950.0
1217	947.0
1218	945.0
1219	938.0
1220	935.0
1221	927.0
1222	921.0
1223	911.0
1224	913.0
1225	929.0
1226	953.0
1227	980.0
1228	1013.0
1229	1061.0
1230	1119.0
1231	1165.0
1232	1188.0
1233	1180.0
1234	1131.0
1235	1053.0
1236	984.0
1237	940.0
1238	924.0
1239	928.0
1240	934.0
1241	942.0
1242	944.0
1243	946.0
1244	946.0
1245	944.0
1246	943.0
1247	939.0
1248	939.0
1249	943.0
1250	945.0
1251	943.0
1252	943.0
1253	941.0
1254	943.0
1255	947.0
1256	946.0
1257	945.0
1258	945.0
1259	945.0
1260	945.0
1261	947.0
1262	946.0
1263	946.0
1264	944.0
1265	939.0
1266	942.0
1267	944.0
1268	945.0
1269	944.0
1270	943.0
1271	939.0
1272	941.0
1273	943.0
1274	943.0
1275	943.0
1276	942.0
1277	941.0
1278	943.0
1279	940.0
1280	943.0
1281	942.0
1282	942.0
1283	940.0
1284	941.0
1285	943.0
1286	945.0
1287	945.0
1288	945.0
1289	944.0
1290	945.0
1291	945.0
1292	943.0
1293	943.0
1294	940.0
1295	937.0
1296	941.0
1297	943.0
1298	945.0
1299	946.0
1300	941.0
1301	943.0
1302	943.0
1303	944.0
1304	945.0
1305	945.0
1306	943.0
1307	940.0
1308	941.0
1309	944.0
1310	945.0
1311	944.0
1312	943.0
1313	939.0
1314	939.0
1315	939.0
1316	940.0
1317	939.0
1318	934.0
1319	935.0
1320	934.0
1321	937.0
1322	935.0
1323	930.0
1324	933.0
1325	932.0
1326	936.0
1327	937.0
1328	939.0
1329	938.0
1330	935.0
1331	934.0
1332	935.0
1333	938.0
1334	940.0
1335	942.0
1336	939.0
1337	940.0
1338	943.0
1339	948.0
1340	950.0
1341	951.0
1342	951.0
1343	951.0
1344	955.0
1345	958.0
1346	961.0
1347	963.0
1348	963.0
1349	960.0
1350	962.0
1351	962.0
1352	963.0
1353	962.0
1354	961.0
1355	960.0
1356	961.0
1357	963.0
1358	963.0
1359	965.0
1360	962.0
1361	960.0
1362	962.0
1363	961.0
1364	965.0
1365	964.0
1366	963.0
1367	964.0
1368	967.0
1369	968.0
1370	966.0
1371	965.0
1372	963.0
1373	959.0
1374	963.0
1375	964.0
1376	964.0
1377	961.0
1378	959.0
1379	957.0
1380	959.0
1381	961.0
1382	960.0
1383	957.0
1384	958.0
1385	956.0
1386	959.0
1387	959.0
1388	960.0
1389	961.0
1390	957.0
1391	957.0
1392	955.0
1393	957.0
1394	959.0
1395	958.0
1396	961.0
1397	957.0
1398	958.0
1399	958.0
1400	958.0
1401	958.0
1402	957.0
1403	956.0
1404	958.0
1405	960.0
1406	961.0
1407	959.0
1408	957.0
1409	953.0
1410	955.0
1411	956.0
1412	957.0
1413	960.0
1414	959.0
1415	954.0
1416	958.0
1417	961.0
1418	961.0
1419	958.0
1420	958.0
1421	957.0
1422	957.0
1423	958.0
1424	958.0
1425	958.0
1426	956.0
1427	956.0
1428	956.0
1429	959.0
1430	959.0
1431	959.0
1432	955.0
1433	954.0
1434	956.0
1435	958.0
1436	960.0
1437	962.0
1438	963.0
1439	963.0
1440	969.0
1441	970.0
1442	973.0
1443	972.0
1444	971.0
1445	972.0
1446	974.0
1447	977.0
1448	977.0
1449	980.0
1450	977.0
1451	977.0
1452	980.0
1453	978.0
1454	979.0
1455	977.0
1456	975.0
1457	973.0
1458	976.0
1459	978.0
1460	978.0
1461	974.0
1462	973.0
1463	974.0
1464	978.0
1465	983.0
1466	985.0
1467	982.0
1468	978.0
1469	970.0
1470	970.0
1471	967.0
1472	967.0
1473	962.0
1474	958.0
1475	956.0
1476	956.0
1477	955.0
1478	954.0
1479	954.0
1480	956.0
1481	953.0
1482	955.0
1483	956.0
1484	956.0
1485	955.0
1486	953.0
1487	950.0
1488	953.0
1489	950.0
1490	955.0
1491	956.0
1492	952.0
1493	948.0
1494	952.0
1495	955.0
1496	954.0
1497	954.0
1498	953.0
1499	948.0
1500	946.0
1501	945.0
1502	939.0
1503	933.0
1504	929.0
1505	922.0
1506	915.0
1507	916.0
1508	925.0
1509	943.0
1510	965.0
1511	992.0
1512	1032.0
1513	1087.0
1514	1143.0
1515	1184.0
1516	1201.0
1517	1183.0
1518	1128.0
1519	1050.0
1520	981.0
1521	939.0
1522	924.0
1523	926.0
1524	934.0
1525	944.0
1526	946.0
1527	945.0
1528	945.0
1529	944.0
1530	946.0
1531	948.0
1532	947.0
1533	947.0
1534	944.0
1535	942.0
1536	942.0
1537	946.0
1538	946.0
1539	943.0
1540	943.0
1541	941.0
1542	942.0
1543	945.0
1544	945.0
1545	944.0
1546	941.0
1547	941.0
1548	941.0
1549	944.0
1550	946.0
1551	946.0
1552	942.0
1553	941.0
1554	943.0
1555	945.0
1556	945.0
1557	945.0
1558	943.0
1559	942.0
1560	942.0
1561	944.0
1562	946.0
1563	945.0
1564	942.0
1565	939.0
1566	941.0
1567	943.0
1568	942.0
1569	943.0
1570	941.0
1571	939.0
1572	939.0
1573	942.0
1574	945.0
1575	946.0
1576	944.0
1577	942.0
1578	942.0
1579	944.0
1580	946.0
1581	942.0
1582	940.0
1583	940.0
1584	941.0
1585	941.0
1586	943.0
1587	940.0
1588	941.0
1589	939.0
1590	942.0
1591	944.0
1592	943.0
1593	944.0
1594	944.0
1595	942.0
1596	944.0
1597	945.0
1598	945.0
1599	943.0
1600	942.0
1601	939.0
1602	939.0
1603	942.0
1604	942.0
1605	940.0
1606	938.0
1607	935.0
1608	936.0
1609	937.0
1610	938.0
1611	938.0
1612	934.0
1613	935.0
1614	935.0
1615	937.0
1616	937.0
1617	935.0
1618	936.0
1619	934.0
1620	938.0
1621	938.0
1622	941.0
1623	944.0
1624	944.0
1625	947.0
1626	951.0
1627	957.0
1628	958.0
1629	959.0
1630	958.0
1631	958.0
1632	962.0
1633	965.0
1634	967.0
1635	966.0
1636	966.0
1637	962.0
1638	965.0
1639	967.0
1640	968.0
1641	964.0
1642	966.0
1643	965.0
1644	966.0
1645	968.0
1646	969.0
1647	969.0
1648	966.0
1649	966.0
1650	967.0
1651	970.0
1652	970.0
1653	970.0
1654	969.0
1655	966.0
1656	967.0
1657	969.0
1658	969.0
1659	966.0
1660	965.0
1661	963.0
1662	965.0
1663	965.0
1664	967.0
1665	966.0
1666	964.0
1667	963.0
1668	962.0
1669	965.0
1670	964.0
1671	963.0
1672	962.0
1673	959.0
1674	959.0
1675	961.0
1676	962.0
1677	961.0
1678	961.0
1679	959.0
1680	960.0
1681	962.0
1682	960.0
1683	961.0
1684	958.0
1685	958.0
1686	960.0
1687	962.0
1688	962.0
1689	962.0
1690	958.0
1691	957.0
1692	958.0
1693	960.0
1694	959.0
1695	959.0
1696	958.0
1697	957.0
1698	958.0
1699	959.0
1700	959.0
1701	960.0
1702	959.0
1703	958.0
1704	959.0
1705	961.0
1706	963.0
1707	959.0
1708	961.0
1709	957.0
1710	958.0
1711	962.0
1712	960.0
1713	958.0
1714	958.0
1715	957.0
1716	958.0
1717	958.0
1718	960.0
1719	960.0
1720	958.0
1721	958.0
1722	959.0
1723	961.0
1724	961.0
1725	961.0
1726	958.0
1727	958.0
1728	960.0
1729	961.0
1730	963.0
1731	963.0
1732	965.0
1733	961.0
1734	964.0
1735	969.0
1736	973.0
1737	973.0
1738	972.0
1739	971.0
1740	973.0
1741	977.0
1742	978.0
1743	979.0
1744	980.0
1745	980.0
1746	981.0
1747	984.0
1748	983.0
1749	983.0
1750	979.0
1751	977.0
1752	976.0
1753	978.0
1754	981.0
1755	976.0
1756	976.0
1757	974.0
1758	977.0
1759	982.0
1760	984.0
1761	980.0
1762	973.0
1763	969.0
1764	967.0
1765	964.0
1766	963.0
1767	960.0
1768	958.0
1769	959.0
1770	960.0
1771	958.0
1772	958.0
1773	957.0
1774	956.0
1775	955.0
1776	956.0
1777	957.0
1778	960.0
1779	959.0
1780	957.0
1781	955.0
1782	955.0
1783	955.0
1784	957.0
1785	956.0
1786	955.0
1787	953.0
1788	956.0
1789	956.0
1790	956.0
1791	956.0
1792	955.0
1793	953.0
1794	951.0
1795	950.0
1796	943.0
1797	935.0
1798	928.0
1799	925.0
1800	920.0
1801	917.0
1802	923.0
1803	941.0
1804	968.0
1805	997.0
1806	1037.0
1807	1084.0
1808	1140.0
1809	1186.0
1810	1213.0
1811	1208.0
1812	1179.0
1813	1113.0
1814	1028.0
1815	965.0
1816	935.0
1817	930.0
1818	939.0
1819	948.0
1820	952.0
1821	952.0
1822	950.0
1823	948.0
1824	948.0
1825	949.0
1826	950.0
1827	951.0
1828	950.0
1829	947.0
1830	947.0
1831	949.0
1832	950.0
1833	950.0
1834	947.0
1835	945.0
1836	947.0
1837	947.0
1838	946.0
1839	947.0
1840	945.0
1841	942.0
1842	944.0
1843	945.0
1844	948.0
1845	945.0
1846	945.0
1847	944.0
1848	944.0
1849	945.0
1850	946.0
1851	946.0
1852	945.0
1853	943.0
1854	946.0
1855	947.0
1856	949.0
1857	949.0
1858	948.0
1859	946.0
1860	947.0
1861	950.0
1862	950.0
1863	950.0
1864	949.0
1865	947.0
1866	950.0
1867	946.0
1868	949.0
1869	950.0
1870	948.0
1871	946.0
1872	946.0
1873	947.0
1874	949.0
1875	949.0
1876	947.0
1877	945.0
1878	946.0
1879	947.0
1880	949.0
1881	948.0
1882	947.0
1883	946.0
1884	948.0
1885	948.0
1886	950.0
1887	950.0
1888	951.0
1889	946.0
1890	951.0
1891	951.0
1892	952.0
1893	949.0
1894	948.0
1895	944.0
1896	946.0
1897	949.0
1898	949.0
1899	950.0
1900	947.0
1901	946.0
1902	946.0
1903	946.0
1904	946.0
1905	949.0
1906	947.0
1907	945.0
1908	948.0
1909	950.0
1910	949.0
1911	949.0
1912	946.0
1913	943.0
1914	949.0
1915	950.0
1916	952.0
1917	949.0
1918	947.0
1919	948.0
1920	950.0
1921	952.0
1922	955.0
1923	955.0
1924	958.0
1925	958.0
1926	961.0
1927	962.0
1928	965.0
1929	967.0
1930	967.0
1931	965.0
1932	968.0
1933	970.0
1934	968.0
1935	968.0
1936	968.0
1937	966.0
1938	966.0
1939	968.0
1940	969.0
1941	968.0
1942	967.0
1943	966.0
1944	966.0
1945	968.0
1946	968.0
1947	967.0
1948	966.0
1949	964.0
1950	965.0
1951	967.0
1952	968.0
1953	967.0
1954	967.0
1955	965.0
1956	967.0
1957	968.0
1958	969.0
1959	968.0
1960	966.0
1961	962.0
1962	963.0
1963	967.0
1964	970.0
1965	970.0
1966	969.0
1967	967.0
1968	967.0
1969	970.0
1970	971.0
1971	971.0
1972	971.0
1973	968.0
1974	971.0
1975	975.0
1976	977.0
1977	977.0
1978	974.0
1979	974.0
1980	975.0
1981	981.0
1982	980.0
1983	975.0
1984	973.0
1985	978.0
1986	983.0
1987	982.0
1988	980.0
1989	978.0
1990	976.0
1991	976.0
1992	975.0
1993	974.0
1994	970.0
1995	967.0
1996	961.0
1997	960.0
1998	960.0
1999	962.0
2000	958.0
2001	956.0
2002	955.0
2003	952.0
2004	951.0
2005	952.0
2006	954.0
2007	953.0
2008	949.0
2009	947.0
2010	949.0
2011	950.0
2012	951.0
2013	951.0
2014	950.0
2015	948.0
2016	952.0
2017	954.0
2018	953.0
2019	953.0
2020	954.0
2021	951.0
2022	954.0
2023	954.0
2024	956.0
2025	953.0
2026	954.0
2027	949.0
2028	951.0
2029	949.0
2030	944.0
2031	938.0
2032	929.0
2033	920.0
2034	920.0
2035	914.0
2036	910.0
2037	916.0
2038	935.0
2039	963.0
2040	996.0
2041	1029.0
2042	1076.0
2043	1126.0
2044	1171.0
2045	1193.0
2046	1199.0
2047	1171.0
2048	1104.0
2049	1019.0
2050	957.0
2051	928.0
2052	930.0
2053	941.0
2054	949.0
2055	951.0
2056	947.0
2057	944.0
2058	948.0
2059	946.0
2060	949.0
2061	947.0
2062	945.0
2063	943.0
2064	946.0
2065	948.0
2066	947.0
2067	947.0
2068	945.0
2069	944.0
2070	943.0
2071	944.0
2072	946.0
2073	946.0
2074	945.0
2075	944.0
2076	946.0
2077	947.0
2078	946.0
2079	947.0
2080	942.0
2081	940.0
2082	943.0
2083	942.0
2084	946.0
2085	946.0
2086	946.0
2087	944.0
2088	944.0
2089	946.0
2090	949.0
2091	948.0
2092	945.0
2093	944.0
2094	946.0
2095	944.0
2096	946.0
2097	945.0
2098	942.0
2099	941.0
2100	943.0
2101	947.0
2102	947.0
2103	948.0
2104	944.0
2105	944.0
2106	945.0
2107	946.0
2108	948.0
2109	949.0
2110	945.0
2111	945.0
2112	947.0
2113	948.0
2114	949.0
2115	947.0
2116	946.0
2117	944.0
2118	944.0
2119	947.0
2120	948.0
2121	945.0
2122	946.0
2123	944.0
2124	945.0
2125	947.0
2126	948.0
2127	947.0
2128	945.0
2129	943.0
2130	944.0
2131	946.0
2132	948.0
2133	948.0
2134	947.0
2135	943.0
2136	945.0
2137	944.0
2138	946.0
2139	944.0
2140	943.0
2141	939.0
2142	940.0
2143	943.0
2144	944.0
2145	943.0
2146	943.0
2147	941.0
2148	944.0
2149	946.0
2150	948.0
2151	947.0
2152	945.0
2153	943.0
2154	946.0
2155	950.0
2156	950.0
2157	950.0
2158	947.0
2159	950.0
2160	953.0
2161	955.0
2162	956.0
2163	957.0
2164	956.0
2165	953.0
2166	957.0
2167	959.0
2168	962.0
2169	963.0
2170	963.0
2171	960.0
2172	961.0
2173	962.0
2174	963.0
2175	963.0
2176	958.0
2177	959.0
2178	955.0
2179	959.0
2180	961.0
2181	961.0
2182	963.0
2183	962.0
2184	962.0
2185	964.0
2186	963.0
2187	963.0
2188	961.0
2189	960.0
2190	959.0
2191	961.0
2192	963.0
2193	961.0
2194	959.0
2195	959.0
2196	958.0
2197	961.0
2198	961.0
2199	962.0
2200	958.0
2201	956.0
2202	957.0
2203	958.0
2204	955.0
2205	953.0
2206	951.0
2207	950.0
2208	955.0
2209	956.0
2210	956.0
2211	955.0
2212	952.0
2213	951.0
2214	952.0
2215	952.0
2216	955.0
2217	953.0
2218	951.0
2219	954.0
2220	952.0
2221	954.0
2222	956.0
2223	955.0
2224	953.0
2225	950.0
2226	954.0
2227	954.0
2228	954.0
2229	955.0
2230	954.0
2231	953.0
2232	952.0
2233	955.0
2234	953.0
2235	954.0
2236	952.0
2237	950.0
2238	953.0
2239	953.0
2240	954.0
2241	953.0
2242	952.0
2243	946.0
2244	947.0
2245	952.0
2246	952.0
2247	950.0
2248	950.0
2249	946.0
2250	949.0
2251	950.0
2252	954.0
2253	956.0
2254	955.0
2255	952.0
2256	952.0
2257	954.0
2258	954.0
2259	957.0
2260	952.0
2261	951.0
2262	951.0
2263	952.0
2264	952.0
2265	951.0
2266	949.0
2267	947.0
2268	947.0
2269	951.0
2270	950.0
2271	949.0
2272	950.0
2273	949.0
2274	951.0
2275	953.0
2276	953.0
2277	952.0
2278	951.0
2279	950.0
2280	952.0
2281	954.0
2282	956.0
2283	955.0
2284	956.0
2285	954.0
2286	955.0
2287	954.0
2288	952.0
2289	954.0
2290	952.0
2291	950.0
2292	952.0
2293	952.0
2294	953.0
2295	952.0
2296	949.0
2297	949.0
2298	950.0
2299	954.0
2300	953.0
2301	952.0
2302	951.0
2303	949.0
2304	950.0
2305	951.0
2306	952.0
2307	953.0
2308	952.0
2309	952.0
2310	954.0
2311	956.0
2312	955.0
2313	955.0
2314	953.0
2315	952.0
2316	952.0
2317	951.0
2318	955.0
2319	953.0
2320	954.0
2321	952.0
2322	953.0
2323	952.0
2324	955.0
2325	957.0
2326	958.0
2327	958.0
2328	962.0
2329	963.0
2330	964.0
2331	963.0
2332	965.0
2333	963.0
2334	967.0
2335	969.0
2336	971.0
2337	973.0
2338	973.0
2339	972.0
2340	971.0
2341	973.0
2342	973.0
2343	972.0
2344	968.0
2345	966.0
2346	968.0
2347	970.0
2348	973.0
2349	969.0
2350	966.0
2351	960.0
2352	964.0
2353	965.0
2354	970.0
2355	971.0
2356	970.0
2357	967.0
2358	964.0
2359	962.0
2360	961.0
2361	960.0
2362	954.0
2363	950.0
2364	951.0
2365	951.0
2366	951.0
2367	950.0
2368	950.0
2369	950.0
2370	948.0
2371	952.0
2372	949.0
2373	949.0
2374	944.0
2375	940.0
2376	943.0
2377	944.0
2378	947.0
2379	948.0
2380	944.0
2381	941.0
2382	943.0
2383	945.0
2384	945.0
2385	945.0
2386	942.0
2387	938.0
2388	936.0
2389	933.0
2390	926.0
2391	927.0
2392	920.0
2393	910.0
2394	909.0
2395	919.0
2396	940.0
2397	963.0
2398	986.0
2399	1020.0
2400	1068.0
2401	1121.0
2402	1167.0
2403	1193.0
2404	1201.0
2405	1182.0
2406	1136.0
2407	1069.0
2408	1010.0
2409	967.0
2410	939.0
2411	924.0
2412	914.0
2413	917.0
2414	924.0
2415	931.0
2416	934.0
2417	934.0
2418	937.0
2419	940.0
2420	942.0
2421	942.0
2422	941.0
2423	940.0
2424	939.0
2425	940.0
2426	938.0
2427	938.0
2428	936.0
2429	934.0
2430	934.0
2431	938.0
2432	938.0
2433	938.0
2434	935.0
2435	935.0
2436	936.0
2437	939.0
2438	938.0
2439	938.0
2440	939.0
2441	935.0
2442	935.0
2443	938.0
2444	937.0
2445	937.0
2446	935.0
2447	935.0
2448	937.0
2449	938.0
2450	939.0
2451	938.0
2452	938.0
2453	936.0
2454	940.0
2455	938.0
2456	939.0
2457	938.0
2458	936.0
2459	936.0
2460	938.0
2461	938.0
2462	941.0
2463	939.0
2464	938.0
2465	933.0
2466	935.0
2467	935.0
2468	938.0
2469	938.0
2470	936.0
2471	936.0
2472	937.0
2473	938.0
2474	941.0
2475	941.0
2476	939.0
2477	939.0
2478	940.0
2479	943.0
2480	943.0
2481	941.0
2482	941.0
2483	939.0
2484	938.0
2485	943.0
2486	943.0
2487	943.0
2488	943.0
2489	938.0
2490	941.0
2491	942.0
2492	941.0
2493	938.0
2494	935.0
2495	931.0
2496	932.0
2497	934.0
2498	933.0
2499	932.0
2500	931.0
2501	927.0
2502	925.0
2503	929.0
2504	926.0
2505	924.0
2506	925.0
2507	921.0
2508	924.0
2509	927.0
2510	926.0
2511	927.0
2512	924.0
2513	924.0
2514	926.0
2515	928.0
2516	932.0
2517	932.0
2518	930.0
2519	931.0
2520	936.0
2521	938.0
2522	939.0
2523	942.0
2524	942.0
2525	944.0
2526	946.0
2527	948.0
2528	953.0
2529	954.0
2530	953.0
2531	954.0
2532	956.0
2533	958.0
2534	959.0
2535	963.0
2536	960.0
2537	961.0
2538	963.0
2539	964.0
2540	963.0
2541	963.0
2542	962.0
2543	958.0
2544	962.0
2545	961.0
2546	961.0
2547	960.0
2548	959.0
2549	959.0
2550	959.0
2551	962.0
2552	962.0
2553	961.0
2554	959.0
2555	958.0
2556	959.0
2557	959.0
2558	961.0
2559	960.0
2560	958.0
2561	957.0
2562	958.0
2563	961.0
2564	960.0
2565	960.0
2566	957.0
2567	957.0
2568	959.0
2569	959.0
2570	960.0
2571	960.0
2572	959.0
2573	954.0
2574	955.0
2575	955.0
2576	957.0
2577	955.0
2578	953.0
2579	953.0
2580	953.0
2581	955.0
2582	957.0
2583	957.0
2584	955.0
2585	953.0
2586	956.0
2587	957.0
2588	958.0
2589	957.0
2590	955.0
2591	954.0
2592	954.0
2593	956.0
2594	957.0
2595	958.0
2596	952.0
2597	953.0
2598	955.0
2599	957.0
2600	955.0
2601	954.0
2602	952.0
2603	948.0
2604	950.0
2605	955.0
2606	955.0
2607	954.0
2608	953.0
2609	951.0
2610	952.0
2611	955.0
2612	955.0
2613	954.0
2614	952.0
2615	952.0
2616	954.0
2617	953.0
2618	956.0
2619	955.0
2620	953.0
2621	953.0
2622	953.0
2623	956.0
2624	956.0
2625	955.0
2626	951.0
2627	950.0
2628	954.0
2629	958.0
2630	960.0
2631	961.0
2632	965.0
2633	963.0
2634	965.0
2635	964.0
2636	967.0
2637	969.0
2638	972.0
2639	969.0
2640	971.0
2641	972.0
2642	974.0
2643	975.0
2644	973.0
2645	971.0
2646	972.0
2647	972.0
2648	974.0
2649	972.0
2650	968.0
2651	968.0
2652	969.0
2653	967.0
2654	968.0
2655	973.0
2656	975.0
2657	975.0
2658	972.0
2659	967.0
2660	966.0
2661	964.0
2662	960.0
2663	957.0
2664	953.0
2665	954.0
2666	953.0
2667	953.0
2668	949.0
2669	947.0
2670	948.0
2671	952.0
2672	954.0
2673	952.0
2674	951.0
2675	950.0
2676	950.0
2677	951.0
2678	952.0
2679	951.0
2680	950.0
2681	947.0
2682	947.0
2683	951.0
2684	952.0
2685	948.0
2686	947.0
2687	945.0
2688	945.0
2689	947.0
2690	948.0
2691	945.0
2692	939.0
2693	931.0
2694	924.0
2695	921.0
2696	918.0
2697	912.0
2698	907.0
2699	918.0
2700	942.0
2701	973.0
2702	1003.0
2703	1045.0
2704	1095.0
2705	1144.0
2706	1186.0
2707	1202.0
2708	1190.0
2709	1140.0
2710	1061.0
2711	983.0
2712	934.0
2713	919.0
2714	925.0
2715	931.0
2716	937.0
2717	941.0
2718	941.0
2719	941.0
2720	944.0
2721	945.0
2722	943.0
2723	939.0
2724	937.0
2725	941.0
2726	941.0
2727	941.0
2728	941.0
2729	938.0
2730	940.0
2731	942.0
2732	943.0
2733	940.0
2734	942.0
2735	940.0
2736	944.0
2737	945.0
2738	947.0
2739	944.0
2740	944.0
2741	944.0
2742	944.0
2743	945.0
2744	944.0
2745	944.0
2746	944.0
2747	942.0
2748	945.0
2749	942.0
2750	944.0
2751	945.0
2752	943.0
2753	942.0
2754	941.0
2755	943.0
2756	944.0
2757	945.0
2758	943.0
2759	941.0
2760	943.0
2761	941.0
2762	942.0
2763	943.0
2764	943.0
2765	942.0
2766	943.0
2767	944.0
2768	945.0
2769	943.0
2770	943.0
2771	944.0
2772	945.0
2773	946.0
2774	945.0
2775	946.0
2776	945.0
2777	940.0
2778	941.0
2779	943.0
2780	944.0
2781	944.0
2782	941.0
2783	940.0
2784	942.0
2785	945.0
2786	944.0
2787	943.0
2788	941.0
2789	937.0
2790	941.0
2791	941.0
2792	944.0
2793	943.0
2794	940.0
2795	938.0
2796	939.0
2797	942.0
2798	942.0
2799	943.0
2800	941.0
2801	939.0
2802	939.0
2803	940.0
2804	942.0
2805	942.0
2806	940.0
2807	938.0
2808	939.0
2809	940.0
2810	943.0
2811	941.0
2812	942.0
2813	942.0
2814	947.0
2815	950.0
2816	952.0
2817	954.0
2818	954.0
2819	954.0
2820	957.0
2821	960.0
2822	963.0
2823	961.0
2824	961.0
2825	960.0
2826	963.0
2827	963.0
2828	965.0
2829	966.0
2830	965.0
2831	965.0
2832	967.0
2833	967.0
2834	970.0
2835	968.0
2836	968.0
2837	965.0
2838	968.0
2839	967.0
2840	969.0
2841	967.0
2842	965.0
2843	963.0
2844	965.0
2845	967.0
2846	967.0
2847	966.0
2848	964.0
2849	962.0
2850	965.0
2851	964.0
2852	966.0
2853	967.0
2854	963.0
2855	962.0
2856	964.0
2857	965.0
2858	963.0
2859	964.0
2860	963.0
2861	960.0
2862	960.0
2863	962.0
2864	964.0
2865	962.0
2866	960.0
2867	956.0
2868	958.0
2869	962.0
2870	961.0
2871	959.0
2872	959.0
2873	955.0
2874	958.0
2875	960.0
2876	960.0
2877	957.0
2878	957.0
2879	953.0
2880	956.0
2881	960.0
2882	961.0
2883	958.0
2884	956.0
2885	956.0
2886	954.0
2887	958.0
2888	958.0
2889	956.0
2890	954.0
2891	953.0
2892	955.0
2893	957.0
2894	957.0
2895	956.0
2896	956.0
2897	955.0
2898	957.0
2899	957.0
2900	959.0
2901	959.0
2902	957.0
2903	956.0
2904	956.0
2905	960.0
2906	961.0
2907	960.0
2908	957.0
2909	957.0
2910	960.0
2911	959.0
2912	961.0
2913	960.0
2914	960.0
2915	955.0
2916	957.0
2917	960.0
2918	962.0
2919	960.0
2920	960.0
2921	956.0
2922	958.0
2923	960.0
2924	962.0
2925	962.0
2926	962.0
2927	965.0
2928	968.0
2929	973.0
2930	974.0
2931	974.0
2932	973.0
2933	972.0
2934	976.0
2935	980.0
2936	978.0
2937	978.0
2938	981.0
2939	980.0
2940	979.0
2941	978.0
2942	978.0
2943	977.0
2944	975.0
2945	973.0
2946	976.0
2947	977.0
2948	975.0
2949	977.0
2950	978.0
2951	980.0
2952	985.0
2953	980.0
2954	975.0
2955	972.0
2956	970.0
2957	966.0
2958	964.0
2959	963.0
2960	963.0
2961	960.0
2962	958.0
2963	954.0
2964	954.0
2965	957.0
2966	957.0
2967	957.0
2968	956.0
2969	954.0
2970	954.0
2971	955.0
2972	957.0
2973	955.0
2974	953.0
2975	950.0
2976	954.0
2977	955.0
2978	957.0
2979	957.0
2980	957.0
2981	953.0
2982	953.0
2983	955.0
2984	953.0
2985	945.0
2986	934.0
2987	928.0
2988	923.0
2989	919.0
2990	915.0
2991	924.0
2992	945.0
2993	973.0
2994	1010.0
2995	1053.0
2996	1109.0
2997	1161.0
2998	1199.0
2999	1209.0
3000	1183.0
3001	1118.0
3002	1028.0
3003	959.0
3004	930.0
3005	927.0
3006	942.0
3007	951.0
3008	953.0
3009	951.0
3010	948.0
3011	947.0
3012	948.0
3013	950.0
3014	950.0
3015	949.0
3016	947.0
3017	945.0
3018	947.0
3019	948.0
3020	947.0
3021	949.0
3022	946.0
3023	943.0
3024	943.0
3025	946.0
3026	947.0
3027	947.0
3028	946.0
3029	942.0
3030	944.0
3031	946.0
3032	947.0
3033	947.0
3034	945.0
3035	946.0
3036	945.0
3037	948.0
3038	949.0
3039	948.0
3040	947.0
3041	944.0
3042	947.0
3043	948.0
3044	949.0
3045	948.0
3046	945.0
3047	945.0
3048	947.0
3049	949.0
3050	950.0
3051	951.0
3052	947.0
3053	945.0
3054	947.0
3055	947.0
3056	950.0
3057	949.0
3058	950.0
3059	949.0
3060	949.0
3061	950.0
3062	953.0
3063	951.0
3064	948.0
3065	949.0
3066	950.0
3067	948.0
3068	951.0
3069	950.0
3070	949.0
3071	946.0
3072	948.0
3073	949.0
3074	948.0
3075	950.0
3076	949.0
3077	948.0
3078	947.0
3079	947.0
3080	950.0
3081	949.0
3082	949.0
3083	948.0
3084	948.0
3085	948.0
3086	948.0
3087	949.0
3088	946.0
3089	945.0
3090	947.0
3091	947.0
3092	949.0
3093	949.0
3094	947.0
3095	947.0
3096	946.0
3097	950.0
3098	951.0
3099	951.0
3100	949.0
3101	947.0
3102	954.0
3103	955.0
3104	959.0
3105	959.0
3106	958.0
3107	959.0
3108	959.0
3109	961.0
3110	961.0
3111	961.0
3112	964.0
3113	964.0
3114	967.0
3115	970.0
3116	971.0
3117	972.0
3118	969.0
3119	967.0
3120	971.0
3121	973.0
3122	974.0
3123	970.0
3124	968.0
3125	967.0
3126	967.0
3127	968.0
3128	970.0
3129	970.0
3130	970.0
3131	967.0
3132	968.0
3133	969.0
3134	970.0
3135	971.0
3136	969.0
3137	966.0
3138	967.0
3139	967.0
3140	969.0
3141	970.0
3142	968.0
3143	965.0
3144	968.0
3145	970.0
3146	970.0
3147	969.0
3148	967.0
3149	964.0
3150	965.0
3151	966.0
3152	965.0
3153	964.0
3154	966.0
3155	963.0
3156	965.0
3157	966.0
3158	965.0
3159	966.0
3160	962.0
3161	960.0
3162	961.0
3163	961.0
3164	964.0
3165	963.0
3166	961.0
3167	958.0
3168	960.0
3169	963.0
3170	961.0
3171	963.0
3172	961.0
3173	959.0
3174	962.0
3175	965.0
3176	964.0
3177	963.0
3178	962.0
3179	959.0
3180	961.0
3181	961.0
3182	963.0
3183	963.0
3184	959.0
3185	960.0
3186	960.0
3187	962.0
3188	963.0
3189	960.0
3190	960.0
3191	960.0
3192	962.0
3193	963.0
3194	966.0
3195	967.0
3196	966.0
3197	963.0
3198	962.0
3199	964.0
3200	964.0
3201	962.0
3202	961.0
3203	961.0
3204	962.0
3205	965.0
3206	964.0
3207	965.0
3208	961.0
3209	962.0
3210	966.0
3211	971.0
3212	976.0
3213	973.0
3214	976.0
3215	974.0
3216	979.0
3217	979.0
3218	981.0
3219	982.0
3220	984.0
3221	985.0
3222	985.0
3223	988.0
3224	989.0
3225	988.0
3226	983.0
3227	981.0
3228	982.0
3229	982.0
3230	982.0
3231	982.0
3232	981.0
3233	979.0
3234	982.0
3235	988.0
3236	990.0
3237	987.0
3238	976.0
3239	973.0
3240	973.0
3241	970.0
3242	969.0
3243	967.0
3244	964.0
3245	964.0
3246	961.0
3247	963.0
3248	964.0
3249	965.0
3250	964.0
3251	961.0
3252	962.0
3253	962.0
3254	964.0
3255	964.0
3256	963.0
3257	961.0
3258	959.0
3259	960.0
3260	960.0
3261	960.0
3262	959.0
3263	956.0
3264	957.0
3265	959.0
3266	961.0
3267	960.0
3268	955.0
3269	950.0
3270	945.0
3271	939.0
3272	935.0
3273	931.0
3274	922.0
3275	918.0
3276	927.0
3277	950.0
3278	977.0
3279	1006.0
3280	1045.0
3281	1099.0
3282	1155.0
3283	1188.0
3284	1197.0
3285	1171.0
3286	1114.0
3287	1036.0
3288	970.0
3289	938.0
3290	932.0
3291	941.0
3292	947.0
3293	951.0
3294	953.0
3295	953.0
3296	955.0
3297	954.0
3298	954.0
3299	952.0
3300	955.0
3301	956.0
3302	956.0
3303	957.0
3304	957.0
3305	953.0
3306	955.0
3307	956.0
3308	957.0
3309	956.0
3310	954.0
3311	951.0
3312	952.0
3313	951.0
3314	954.0
3315	955.0
3316	951.0
3317	952.0
3318	954.0
3319	953.0
3320	954.0
3321	953.0
3322	954.0
3323	952.0
3324	957.0
3325	957.0
3326	958.0
3327	956.0
3328	954.0
3329	954.0
3330	955.0
3331	957.0
3332	955.0
3333	953.0
3334	953.0
3335	950.0
3336	953.0
3337	954.0
3338	955.0
3339	951.0
3340	951.0
3341	950.0
3342	951.0
3343	953.0
3344	955.0
3345	955.0
3346	955.0
3347	956.0
3348	957.0
3349	959.0
3350	957.0
3351	955.0
3352	954.0
3353	954.0
3354	953.0
3355	953.0
3356	952.0
3357	954.0
3358	952.0
3359	951.0
3360	955.0
3361	955.0
3362	958.0
3363	954.0
3364	955.0
3365	953.0
3366	954.0
3367	956.0
3368	957.0
3369	954.0
3370	951.0
3371	948.0
3372	947.0
3373	953.0
3374	952.0
3375	953.0
3376	950.0
3377	947.0
3378	950.0
3379	950.0
3380	954.0
3381	955.0
3382	951.0
3383	951.0
3384	952.0
3385	955.0
3386	958.0
3387	958.0
3388	958.0
3389	957.0
3390	961.0
3391	962.0
3392	967.0
3393	966.0
3394	966.0
3395	964.0
3396	968.0
3397	969.0
3398	972.0
3399	972.0
3400	970.0
3401	971.0
3402	973.0
3403	974.0
3404	975.0
3405	975.0
3406	973.0
3407	971.0
3408	972.0
3409	973.0
3410	976.0
3411	974.0
3412	973.0
3413	969.0
3414	969.0
3415	971.0
3416	970.0
3417	969.0
3418	968.0
3419	966.0
3420	968.0
3421	969.0
3422	970.0
3423	970.0
3424	968.0
3425	966.0
3426	968.0
3427	967.0
3428	969.0
3429	966.0
3430	968.0
3431	966.0
3432	968.0
3433	967.0
3434	969.0
3435	968.0
3436	965.0
3437	963.0
3438	964.0
3439	964.0
3440	963.0
3441	961.0
3442	960.0
3443	962.0
3444	962.0
3445	964.0
3446	962.0
3447	962.0
3448	960.0
3449	959.0
3450	962.0
3451	960.0
3452	962.0
3453	962.0
3454	961.0
3455	959.0
3456	961.0
3457	963.0
3458	961.0
3459	962.0
3460	960.0
3461	959.0
3462	959.0
3463	960.0
3464	963.0
3465	963.0
3466	964.0
3467	961.0
3468	964.0
3469	962.0
3470	961.0
3471	963.0
3472	962.0
3473	960.0
3474	962.0
3475	964.0
3476	965.0
3477	964.0
3478	961.0
3479	959.0
3480	959.0
3481	963.0
3482	962.0
3483	966.0
3484	961.0
3485	959.0
3486	960.0
3487	966.0
3488	968.0
3489	972.0
3490	972.0
3491	971.0
3492	972.0
3493	974.0
3494	978.0
3495	980.0
3496	980.0
3497	977.0
3498	980.0
3499	983.0
3500	983.0
3501	982.0
3502	982.0
3503	978.0
3504	976.0
3505	978.0
3506	979.0
3507	977.0
3508	974.0
3509	971.0
3510	972.0
3511	975.0
3512	981.0
3513	981.0
3514	975.0
3515	968.0
3516	969.0
3517	969.0
3518	965.0
3519	962.0
3520	959.0
3521	956.0
3522	956.0
3523	959.0
3524	961.0
3525	962.0
3526	961.0
3527	958.0
3528	958.0
3529	959.0
3530	959.0
3531	957.0
3532	955.0
3533	954.0
3534	954.0
3535	954.0
3536	955.0
3537	954.0
3538	951.0
3539	952.0
3540	954.0
3541	953.0
3542	955.0
3543	955.0
3544	954.0
3545	951.0
3546	948.0
3547	943.0
3548	939.0
3549	936.0
3550	930.0
3551	920.0
3552	916.0
3553	926.0
3554	946.0
3555	972.0
3556	1001.0
3557	1041.0
3558	1096.0
3559	1147.0
3560	1180.0
3561	1191.0
3562	1168.0
3563	1106.0
3564	1030.0
3565	973.0
3566	941.0
3567	930.0
3568	931.0
3569	937.0
3570	945.0
3571	949.0
3572	950.0
3573	949.0
3574	949.0
3575	946.0
3576	944.0
3577	948.0
3578	947.0
3579	947.0
3580	947.0
3581	947.0
3582	950.0
3583	950.0
3584	952.0
3585	948.0
3586	948.0
3587	947.0
3588	950.0
3589	950.0
3590	951.0
3591	949.0
3592	947.0
3593	946.0
3594	946.0
3595	947.0
3596	947.0
3597	945.0
3598	946.0
3599	944.0
3600	943.0
