1	995.0
2	995.0
3	995.0
4	995.0
5	995.0
6	995.0
7	995.0
8	995.0
9	1000.0
10	997.0
11	995.0
12	994.0
13	992.0
14	993.0
15	992.0
16	989.0
17	988.0
18	987.0
19	990.0
20	993.0
21	989.0
22	988.0
23	986.0
24	988.0
25	993.0
26	997.0
27	993.0
28	986.0
29	983.0
30	977.0
31	979.0
32	975.0
33	974.0
34	972.0
35	969.0
36	969.0
37	969.0
38	971.0
39	973.0
40	971.0
41	969.0
42	966.0
43	966.0
44	966.0
45	966.0
46	967.0
47	965.0
48	963.0
49	967.0
50	969.0
51	969.0
52	968.0
53	967.0
54	963.0
55	966.0
56	964.0
57	968.0
58	966.0
59	964.0
60	961.0
61	960.0
62	957.0
63	952.0
64	947.0
65	947.0
66	943.0
67	933.0
68	927.0
69	927.0
70	939.0
71	958.0
72	980.0
73	1010.0
74	1048.0
75	1099.0
76	1148.0
77	1180.0
78	1192.0
79	1177.0
80	1128.0
81	1058.0
82	991.0
83	951.0
84	937.0
85	939.0
86	950.0
87	958.0
88	959.0
89	957.0
90	955.0
91	958.0
92	959.0
93	961.0
94	962.0
95	960.0
96	957.0
97	956.0
98	959.0
99	955.0
100	957.0
101	958.0
102	957.0
103	958.0
104	959.0
105	958.0
106	958.0
107	955.0
108	953.0
109	957.0
110	959.0
111	963.0
112	960.0
113	960.0
114	958.0
115	956.0
116	957.0
117	956.0
118	955.0
119	953.0
120	953.0
121	956.0
122	958.0
123	958.0
124	958.0
125	956.0
126	954.0
127	959.0
128	959.0
129	958.0
130	958.0
131	957.0
132	957.0
133	956.0
134	958.0
135	956.0
136	954.0
137	953.0
138	954.0
139	955.0
140	958.0
141	960.0
142	957.0
143	958.0
144	955.0
145	958.0
146	957.0
147	957.0
148	955.0
149	955.0
150	953.0
151	956.0
152	956.0
153	957.0
154	958.0
155	954.0
156	954.0
157	955.0
158	957.0
159	957.0
160	957.0
161	954.0
162	953.0
163	953.0
164	955.0
165	955.0
166	957.0
167	954.0
168	952.0
169	952.0
170	952.0
171	951.0
172	952.0
173	950.0
174	947.0
175	950.0
176	952.0
177	953.0
178	952.0
179	949.0
180	949.0
181	951.0
182	951.0
183	952.0
184	952.0
185	951.0
186	950.0
187	953.0
188	958.0
189	959.0
190	959.0
191	957.0
192	956.0
193	961.0
194	964.0
195	964.0
196	966.0
197	965.0
198	966.0
199	967.0
200	969.0
201	973.0
202	974.0
203	974.0
204	971.0
205	973.0
206	975.0
207	978.0
208	975.0
209	975.0
210	973.0
211	973.0
212	976.0
213	974.0
214	973.0
215	975.0
216	973.0
217	974.0
218	974.0
219	971.0
220	972.0
221	972.0
222	971.0
223	970.0
224	971.0
225	972.0
226	969.0
227	968.0
228	966.0
229	969.0
230	970.0
231	972.0
232	968.0
233	968.0
234	967.0
235	969.0
236	969.0
237	971.0
238	970.0
239	967.0
240	966.0
241	968.0
242	969.0
243	967.0
244	968.0
245	964.0
246	964.0
247	963.0
248	965.0
249	964.0
250	962.0
251	962.0
252	963.0
253	965.0
254	967.0
255	967.0
256	966.0
257	965.0
258	962.0
259	966.0
260	965.0
261	964.0
262	963.0
263	962.0
264	959.0
265	962.0
266	964.0
267	966.0
268	962.0
269	959.0
270	958.0
271	961.0
272	964.0
273	963.0
274	962.0
275	960.0
276	958.0
277	959.0
278	961.0
279	962.0
280	963.0
281	963.0
282	962.0
283	964.0
284	963.0
285	966.0
286	964.0
287	964.0
288	963.0
289	963.0
290	966.0
291	968.0
292	965.0
293	963.0
294	961.0
295	963.0
296	965.0
297	966.0
298	968.0
299	970.0
300	969.0
301	969.0
302	970.0
303	974.0
304	974.0
305	973.0
306	979.0
307	980.0
308	983.0
309	984.0
310	983.0
311	981.0
312	978.0
313	980.0
314	979.0
315	979.0
316	979.0
317	978.0
318	977.0
319	976.0
320	977.0
321	980.0
322	982.0
323	983.0
324	975.0
325	967.0
326	967.0
327	964.0
328	962.0
329	958.0
330	958.0
331	959.0
332	961.0
333	960.0
334	961.0
335	959.0
336	956.0
337	955.0
338	956.0
339	956.0
340	954.0
341	955.0
342	953.0
343	958.0
344	957.0
345	958.0
346	960.0
347	955.0
348	953.0
349	956.0
350	958.0
351	959.0
352	958.0
353	954.0
354	951.0
355	952.0
356	948.0
357	939.0
358	935.0
359	929.0
360	922.0
361	917.0
362	923.0
363	941.0
364	964.0
365	992.0
366	1021.0
367	1071.0
368	1122.0
369	1168.0
370	1199.0
371	1212.0
372	1205.0
373	1175.0
374	1122.0
375	1057.0
376	1002.0
377	970.0
378	946.0
379	934.0
380	929.0
381	933.0
382	939.0
383	946.0
384	946.0
385	947.0
386	946.0
387	948.0
388	948.0
389	948.0
390	945.0
391	947.0
392	947.0
393	947.0
394	949.0
395	945.0
396	942.0
397	942.0
398	944.0
399	945.0
400	946.0
401	943.0
402	945.0
403	947.0
404	949.0
405	946.0
406	946.0
407	943.0
408	942.0
409	942.0
410	946.0
411	946.0
412	945.0
413	943.0
414	941.0
415	944.0
416	942.0
417	943.0
418	942.0
419	941.0
420	942.0
421	944.0
422	944.0
423	945.0
424	946.0
425	943.0
426	942.0
427	946.0
428	946.0
429	947.0
430	947.0
431	942.0
432	943.0
433	945.0
434	946.0
435	949.0
436	946.0
437	945.0
438	942.0
439	944.0
440	946.0
441	946.0
442	947.0
443	943.0
444	941.0
445	941.0
446	944.0
447	945.0
448	943.0
449	941.0
450	940.0
451	940.0
452	942.0
453	941.0
454	939.0
455	940.0
456	937.0
457	938.0
458	938.0
459	940.0
460	938.0
461	934.0
462	933.0
463	934.0
464	937.0
465	935.0
466	934.0
467	933.0
468	930.0
469	932.0
470	933.0
471	934.0
472	933.0
473	930.0
474	929.0
475	932.0
476	934.0
477	935.0
478	936.0
479	937.0
480	936.0
481	942.0
482	945.0
483	950.0
484	951.0
485	952.0
486	951.0
487	956.0
488	959.0
489	961.0
490	960.0
491	958.0
492	958.0
493	960.0
494	962.0
495	964.0
496	964.0
497	960.0
498	960.0
499	961.0
500	963.0
501	963.0
502	965.0
503	960.0
504	958.0
505	963.0
506	962.0
507	964.0
508	964.0
509	960.0
510	959.0
511	962.0
512	963.0
513	961.0
514	963.0
515	961.0
516	961.0
517	962.0
518	965.0
519	966.0
520	963.0
521	962.0
522	960.0
523	961.0
524	964.0
525	961.0
526	961.0
527	961.0
528	958.0
529	961.0
530	960.0
531	961.0
532	959.0
533	957.0
534	956.0
535	957.0
536	957.0
537	958.0
538	959.0
539	955.0
540	954.0
541	955.0
542	957.0
543	958.0
544	958.0
545	955.0
546	955.0
547	955.0
548	960.0
549	958.0
550	957.0
551	956.0
552	953.0
553	957.0
554	958.0
555	958.0
556	957.0
557	953.0
558	952.0
559	953.0
560	954.0
561	956.0
562	955.0
563	955.0
564	955.0
565	955.0
566	958.0
567	958.0
568	957.0
569	955.0
570	954.0
571	954.0
572	956.0
573	958.0
574	955.0
575	955.0
576	953.0
577	954.0
578	956.0
579	958.0
580	956.0
581	956.0
582	956.0
583	958.0
584	957.0
585	958.0
586	957.0
587	955.0
588	955.0
589	956.0
590	958.0
591	961.0
592	965.0
593	964.0
594	965.0
595	967.0
596	969.0
597	971.0
598	971.0
599	971.0
600	973.0
601	974.0
602	976.0
603	979.0
604	981.0
605	976.0
606	975.0
607	976.0
608	975.0
609	977.0
610	975.0
611	974.0
612	969.0
613	969.0
614	971.0
615	974.0
616	979.0
617	980.0
618	978.0
619	971.0
620	970.0
621	968.0
622	967.0
623	963.0
624	960.0
625	956.0
626	958.0
627	957.0
628	957.0
629	953.0
630	950.0
631	952.0
632	955.0
633	954.0
634	953.0
635	951.0
636	949.0
637	948.0
638	950.0
639	951.0
640	951.0
641	948.0
642	947.0
643	948.0
644	949.0
645	953.0
646	950.0
647	946.0
648	943.0
649	942.0
650	937.0
651	931.0
652	926.0
653	920.0
654	913.0
655	910.0
656	919.0
657	943.0
658	974.0
659	1006.0
660	1048.0
661	1106.0
662	1162.0
663	1201.0
664	1216.0
665	1194.0
666	1128.0
667	1034.0
668	960.0
669	924.0
670	923.0
671	935.0
672	941.0
673	945.0
674	946.0
675	945.0
676	946.0
677	945.0
678	943.0
679	945.0
680	943.0
681	946.0
682	945.0
683	945.0
684	942.0
685	943.0
686	944.0
687	944.0
688	941.0
689	943.0
690	940.0
691	941.0
692	943.0
693	943.0
694	940.0
695	940.0
696	937.0
697	940.0
698	942.0
699	942.0
700	943.0
701	939.0
702	938.0
703	940.0
704	941.0
705	942.0
706	942.0
707	939.0
708	940.0
709	944.0
710	945.0
711	944.0
712	944.0
713	945.0
714	941.0
715	943.0
716	946.0
717	944.0
718	944.0
719	941.0
720	939.0
721	939.0
722	941.0
723	941.0
724	942.0
725	939.0
726	939.0
727	940.0
728	941.0
729	944.0
730	944.0
731	942.0
732	939.0
733	942.0
734	943.0
735	945.0
736	944.0
737	944.0
738	943.0
739	947.0
740	944.0
741	946.0
742	946.0
743	944.0
744	941.0
745	943.0
746	943.0
747	942.0
748	941.0
749	940.0
750	940.0
751	939.0
752	941.0
753	941.0
754	942.0
755	937.0
756	938.0
757	937.0
758	940.0
759	940.0
760	940.0
761	940.0
762	939.0
763	939.0
764	941.0
765	945.0
766	945.0
767	946.0
768	949.0
769	952.0
770	956.0
771	957.0
772	958.0
773	957.0
774	957.0
775	959.0
776	960.0
777	963.0
778	963.0
779	961.0
780	962.0
781	963.0
782	964.0
783	964.0
784	964.0
785	962.0
786	962.0
787	962.0
788	961.0
789	964.0
790	963.0
791	961.0
792	960.0
793	959.0
794	962.0
795	963.0
796	963.0
797	960.0
798	959.0
799	963.0
800	962.0
801	965.0
802	962.0
803	959.0
804	958.0
805	960.0
806	960.0
807	960.0
808	959.0
809	954.0
810	954.0
811	956.0
812	957.0
813	958.0
814	957.0
815	956.0
816	952.0
817	954.0
818	954.0
819	953.0
820	952.0
821	953.0
822	951.0
823	953.0
824	954.0
825	956.0
826	953.0
827	954.0
828	951.0
829	951.0
830	954.0
831	953.0
832	954.0
833	950.0
834	948.0
835	950.0
836	952.0
837	951.0
838	952.0
839	951.0
840	948.0
841	950.0
842	951.0
843	954.0
844	954.0
845	954.0
846	950.0
847	951.0
848	955.0
849	955.0
850	956.0
851	953.0
852	951.0
853	952.0
854	953.0
855	953.0
856	953.0
857	949.0
858	947.0
859	953.0
860	952.0
861	953.0
862	952.0
863	952.0
864	950.0
865	952.0
866	955.0
867	953.0
868	955.0
869	955.0
870	955.0
871	956.0
872	962.0
873	963.0
874	963.0
875	962.0
876	963.0
877	966.0
878	967.0
879	969.0
880	968.0
881	968.0
882	969.0
883	971.0
884	973.0
885	975.0
886	972.0
887	971.0
888	969.0
889	968.0
890	971.0
891	970.0
892	969.0
893	968.0
894	969.0
895	968.0
896	969.0
897	971.0
898	973.0
899	976.0
900	972.0
901	968.0
902	962.0
903	962.0
904	955.0
905	952.0
906	948.0
907	947.0
908	948.0
909	950.0
910	949.0
911	947.0
912	946.0
913	945.0
914	947.0
915	947.0
916	947.0
917	945.0
918	943.0
919	944.0
920	949.0
921	949.0
922	946.0
923	945.0
924	941.0
925	943.0
926	944.0
927	946.0
928	943.0
929	939.0
930	932.0
931	929.0
932	923.0
933	922.0
934	919.0
935	916.0
936	904.0
937	895.0
938	898.0
939	909.0
940	925.0
941	947.0
942	970.0
943	1001.0
944	1042.0
945	1098.0
946	1151.0
947	1186.0
948	1196.0
949	1178.0
950	1119.0
951	1037.0
952	963.0
953	924.0
954	920.0
955	929.0
956	942.0
957	946.0
958	946.0
959	944.0
960	942.0
961	943.0
962	947.0
963	946.0
964	945.0
965	943.0
966	942.0
967	943.0
968	944.0
969	946.0
970	945.0
971	942.0
972	941.0
973	942.0
974	945.0
975	943.0
976	942.0
977	943.0
978	943.0
979	942.0
980	946.0
981	947.0
982	946.0
983	945.0
984	944.0
985	944.0
986	944.0
987	945.0
988	945.0
989	943.0
990	943.0
991	944.0
992	945.0
993	947.0
994	949.0
995	947.0
996	945.0
997	946.0
998	947.0
999	949.0
1000	947.0
1001	945.0
1002	945.0
1003	947.0
1004	949.0
1005	949.0
1006	947.0
1007	945.0
1008	946.0
1009	946.0
1010	951.0
1011	949.0
1012	947.0
1013	945.0
1014	948.0
1015	947.0
1016	949.0
1017	948.0
1018	946.0
1019	948.0
1020	949.0
1021	949.0
1022	949.0
1023	949.0
1024	948.0
1025	946.0
1026	946.0
1027	951.0
1028	950.0
1029	949.0
1030	947.0
1031	946.0
1032	946.0
1033	949.0
1034	951.0
1035	947.0
1036	948.0
1037	946.0
1038	949.0
1039	949.0
1040	951.0
1041	950.0
1042	947.0
1043	945.0
1044	947.0
1045	947.0
1046	950.0
1047	951.0
1048	950.0
1049	949.0
1050	954.0
1051	957.0
1052	960.0
1053	961.0
1054	960.0
1055	959.0
1056	961.0
1057	965.0
1058	967.0
1059	964.0
1060	965.0
1061	967.0
1062	967.0
1063	968.0
1064	970.0
1065	968.0
1066	966.0
1067	965.0
1068	965.0
1069	966.0
1070	968.0
1071	966.0
1072	965.0
1073	962.0
1074	965.0
1075	967.0
1076	968.0
1077	969.0
1078	965.0
1079	963.0
1080	964.0
1081	965.0
1082	965.0
1083	967.0
1084	964.0
1085	963.0
1086	964.0
1087	965.0
1088	964.0
1089	963.0
1090	961.0
1091	962.0
1092	961.0
1093	965.0
1094	964.0
1095	962.0
1096	958.0
1097	956.0
1098	958.0
1099	960.0
1100	960.0
1101	961.0
1102	959.0
1103	957.0
1104	958.0
1105	961.0
1106	960.0
1107	960.0
1108	958.0
1109	955.0
1110	956.0
1111	957.0
1112	958.0
1113	957.0
1114	955.0
1115	954.0
1116	955.0
1117	956.0
1118	957.0
1119	957.0
1120	958.0
1121	957.0
1122	956.0
1123	957.0
1124	960.0
1125	956.0
1126	956.0
1127	954.0
1128	951.0
1129	952.0
1130	955.0
1131	955.0
1132	954.0
1133	954.0
1134	954.0
1135	956.0
1136	956.0
1137	955.0
1138	955.0
1139	948.0
1140	952.0
1141	952.0
1142	955.0
1143	955.0
1144	954.0
1145	953.0
1146	955.0
1147	958.0
1148	958.0
1149	957.0
1150	957.0
1151	956.0
1152	958.0
1153	960.0
1154	966.0
1155	966.0
1156	964.0
1157	963.0
1158	967.0
1159	968.0
1160	969.0
1161	968.0
1162	969.0
1163	970.0
1164	971.0
1165	974.0
1166	978.0
1167	975.0
1168	976.0
1169	973.0
1170	973.0
1171	975.0
1172	977.0
1173	973.0
1174	971.0
1175	972.0
1176	973.0
1177	970.0
1178	971.0
1179	968.0
1180	973.0
1181	974.0
1182	975.0
1183	971.0
1184	968.0
1185	964.0
1186	961.0
1187	959.0
1188	957.0
1189	955.0
1190	958.0
1191	957.0
1192	955.0
1193	952.0
1194	954.0
1195	956.0
1196	957.0
1197	955.0
1198	952.0
1199	951.0
1200	949.0
1201	950.0
1202	951.0
1203	951.0
1204	948.0
1205	949.0
1206	949.0
1207	951.0
1208	950.0
1209	952.0
1210	950.0
1211	948.0
1212	951.0
1213	952.0
1214	954.0
1215	953.0
1216	950.0
1217	947.0
1218	945.0
1219	938.0
1220	935.0
1221	927.0
1222	921.0
1223	911.0
1224	913.0
1225	929.0
1226	953.0
1227	980.0
1228	1013.0
1229	1061.0
1230	1119.0
1231	1165.0
1232	1188.0
1233	1180.0
1234	1131.0
1235	1053.0
1236	984.0
1237	940.0
1238	924.0
1239	928.0
1240	934.0
1241	942.0
1242	944.0
1243	946.0
1244	946.0
1245	944.0
1246	943.0
1247	939.0
1248	939.0
1249	943.0
1250	945.0
1251	943.0
1252	943.0
1253	941.0
1254	943.0
1255	947.0
1256	946.0
1257	945.0
1258	945.0
1259	945.0
1260	945.0
1261	947.0
1262	946.0
1263	946.0
1264	944.0
1265	939.0
1266	942.0
1267	944.0
1268	945.0
1269	944.0
1270	943.0
1271	939.0
1272	941.0
1273	943.0
1274	943.0
1275	943.0
1276	942.0
1277	941.0
1278	943.0
1279	940.0
1280	943.0
1281	942.0
1282	942.0
1283	940.0
1284	941.0
1285	943.0
1286	945.0
1287	945.0
1288	945.0
1289	944.0
1290	945.0
1291	945.0
1292	943.0
1293	943.0
1294	940.0
1295	937.0
1296	941.0
1297	943.0
1298	945.0
1299	946.0
1300	941.0
1301	943.0
1302	943.0
1303	944.0
1304	945.0
1305	945.0
1306	943.0
1307	940.0
1308	941.0
1309	944.0
1310	945.0
1311	944.0
1312	943.0
1313	939.0
1314	939.0
1315	939.0
1316	940.0
1317	939.0
1318	934.0
1319	935.0
1320	934.0
1321	937.0
1322	935.0
1323	930.0
1324	933.0
1325	932.0
1326	936.0
1327	937.0
1328	939.0
1329	938.0
1330	935.0
1331	934.0
1332	935.0
1333	938.0
1334	940.0
1335	942.0
1336	939.0
1337	940.0
1338	943.0
1339	948.0
1340	950.0
1341	951.0
1342	951.0
1343	951.0
1344	955.0
1345	958.0
1346	961.0
1347	963.0
1348	963.0
1349	960.0
1350	962.0
1351	962.0
1352	963.0
1353	962.0
1354	961.0
1355	960.0
1356	961.0
1357	963.0
1358	963.0
1359	965.0
1360	962.0
1361	960.0
1362	962.0
1363	961.0
1364	965.0
1365	964.0
1366	963.0
1367	964.0
1368	967.0
1369	968.0
1370	966.0
1371	965.0
1372	963.0
1373	959.0
1374	963.0
1375	964.0
1376	964.0
1377	961.0
1378	959.0
1379	957.0
1380	959.0
1381	961.0
1382	960.0
1383	957.0
1384	958.0
1385	956.0
1386	959.0
1387	959.0
1388	960.0
1389	961.0
1390	957.0
1391	957.0
1392	955.0
1393	957.0
1394	959.0
1395	958.0
1396	961.0
1397	957.0
1398	958.0
1399	958.0
1400	958.0
1401	958.0
1402	957.0
1403	956.0
1404	958.0
1405	960.0
1406	961.0
1407	959.0
1408	957.0
1409	953.0
1410	955.0
1411	956.0
1412	957.0
1413	960.0
1414	959.0
1415	954.0
1416	958.0
1417	961.0
1418	961.0
1419	958.0
1420	958.0
1421	957.0
1422	957.0
1423	958.0
1424	958.0
1425	958.0
1426	956.0
1427	956.0
1428	956.0
1429	959.0
1430	959.0
1431	959.0
1432	955.0
1433	954.0
1434	956.0
1435	958.0
1436	960.0
1437	962.0
1438	963.0
1439	963.0
1440	969.0
1441	970.0
1442	973.0
1443	972.0
1444	971.0
1445	972.0
1446	974.0
1447	977.0
1448	977.0
1449	980.0
1450	977.0
1451	977.0
1452	980.0
1453	978.0
1454	979.0
1455	977.0
1456	975.0
1457	973.0
1458	976.0
1459	978.0
1460	978.0
1461	974.0
1462	973.0
1463	974.0
1464	978.0
1465	983.0
1466	985.0
1467	982.0
1468	978.0
1469	970.0
1470	970.0
1471	967.0
1472	967.0
1473	962.0
1474	958.0
1475	956.0
1476	956.0
1477	955.0
1478	954.0
1479	954.0
1480	956.0
1481	953.0
1482	955.0
1483	956.0
1484	956.0
1485	955.0
1486	953.0
1487	950.0
1488	953.0
1489	950.0
1490	955.0
1491	956.0
1492	952.0
1493	948.0
1494	952.0
1495	955.0
1496	954.0
1497	954.0
1498	953.0
1499	948.0
1500	946.0
1501	945.0
1502	939.0
1503	933.0
1504	929.0
1505	922.0
1506	915.0
1507	916.0
1508	925.0
1509	943.0
1510	965.0
1511	992.0
1512	1032.0
1513	1087.0
1514	1143.0
1515	1184.0
1516	1201.0
1517	1183.0
1518	1128.0
1519	1050.0
1520	981.0
1521	939.0
1522	924.0
1523	926.0
1524	934.0
1525	944.0
1526	946.0
1527	945.0
1528	945.0
1529	944.0
1530	946.0
1531	948.0
1532	947.0
1533	947.0
1534	944.0
1535	942.0
1536	942.0
1537	946.0
1538	946.0
1539	943.0
1540	943.0
1541	941.0
1542	942.0
1543	945.0
1544	945.0
1545	944.0
1546	941.0
1547	941.0
1548	941.0
1549	944.0
1550	946.0
1551	946.0
1552	942.0
1553	941.0
1554	943.0
1555	945.0
1556	945.0
1557	945.0
1558	943.0
1559	942.0
1560	942.0
1561	944.0
1562	946.0
1563	945.0
1564	942.0
1565	939.0
1566	941.0
1567	943.0
1568	942.0
1569	943.0
1570	941.0
1571	939.0
1572	939.0
1573	942.0
1574	945.0
1575	946.0
1576	944.0
1577	942.0
1578	942.0
1579	944.0
1580	946.0
1581	942.0
1582	940.0
1583	940.0
1584	941.0
1585	941.0
1586	943.0
1587	940.0
1588	941.0
1589	939.0
1590	942.0
1591	944.0
1592	943.0
1593	944.0
1594	944.0
1595	942.0
1596	944.0
1597	945.0
1598	945.0
1599	943.0
1600	942.0
1601	939.0
1602	939.0
1603	942.0
1604	942.0
1605	940.0
1606	938.0
1607	935.0
1608	936.0
1609	937.0
1610	938.0
1611	938.0
1612	934.0
1613	935.0
1614	935.0
1615	937.0
1616	937.0
1617	935.0
1618	936.0
1619	934.0
1620	938.0
1621	938.0
1622	941.0
1623	944.0
1624	944.0
1625	947.0
1626	951.0
1627	957.0
1628	958.0
1629	959.0
1630	958.0
1631	958.0
1632	962.0
1633	965.0
1634	967.0
1635	966.0
1636	966.0
1637	962.0
1638	965.0
1639	967.0
1640	968.0
1641	964.0
1642	966.0
1643	965.0
1644	966.0
1645	968.0
1646	969.0
1647	969.0
1648	966.0
1649	966.0
1650	967.0
1651	970.0
1652	970.0
1653	970.0
1654	969.0
1655	966.0
1656	967.0
1657	969.0
1658	969.0
1659	966.0
1660	965.0
1661	963.0
1662	965.0
1663	965.0
1664	967.0
1665	966.0
1666	964.0
1667	963.0
1668	962.0
1669	965.0
1670	964.0
1671	963.0
1672	962.0
1673	959.0
1674	959.0
1675	961.0
1676	962.0
1677	961.0
1678	961.0
1679	959.0
1680	960.0
1681	962.0
1682	960.0
1683	961.0
1684	958.0
1685	958.0
1686	960.0
1687	962.0
1688	962.0
1689	962.0
1690	958.0
1691	957.0
1692	958.0
1693	960.0
1694	959.0
1695	959.0
1696	958.0
1697	957.0
1698	958.0
1699	959.0
1700	959.0
1701	960.0
1702	959.0
1703	958.0
1704	959.0
1705	961.0
1706	963.0
1707	959.0
1708	961.0
1709	957.0
1710	958.0
1711	962.0
1712	960.0
1713	958.0
1714	958.0
1715	957.0
1716	958.0
1717	958.0
1718	960.0
1719	960.0
1720	958.0
1721	958.0
1722	959.0
1723	961.0
1724	961.0
1725	961.0
1726	958.0
1727	958.0
1728	960.0
1729	961.0
1730	963.0
1731	963.0
1732	965.0
1733	961.0
1734	964.0
1735	969.0
1736	973.0
1737	973.0
1738	972.0
1739	971.0
1740	973.0
1741	977.0
1742	978.0
1743	979.0
1744	980.0
1745	980.0
1746	981.0
1747	984.0
1748	983.0
1749	983.0
1750	979.0
1751	977.0
1752	976.0
1753	978.0
1754	981.0
1755	976.0
1756	976.0
1757	974.0
1758	977.0
1759	982.0
1760	984.0
1761	980.0
1762	973.0
1763	969.0
1764	967.0
1765	964.0
1766	963.0
1767	960.0
1768	958.0
1769	959.0
1770	960.0
1771	958.0
1772	958.0
1773	957.0
1774	956.0
1775	955.0
1776	956.0
1777	957.0
1778	960.0
1779	959.0
1780	957.0
1781	955.0
1782	955.0
1783	955.0
1784	957.0
1785	956.0
1786	955.0
1787	953.0
1788	956.0
1789	956.0
1790	956.0
1791	956.0
1792	955.0
1793	953.0
1794	951.0
1795	950.0
1796	943.0
1797	935.0
1798	928.0
1799	925.0
1800	920.0
1801	917.0
1802	923.0
1803	941.0
1804	968.0
1805	997.0
1806	1037.0
1807	1084.0
1808	1140.0
1809	1186.0
1810	1213.0
1811	1208.0
1812	1179.0
1813	1113.0
1814	1028.0
1815	965.0
1816	935.0
1817	930.0
1818	939.0
1819	948.0
1820	952.0
1821	952.0
1822	950.0
1823	948.0
1824	948.0
1825	949.0
1826	950.0
1827	951.0
1828	950.0
1829	947.0
1830	947.0
1831	949.0
1832	950.0
1833	950.0
1834	947.0
1835	945.0
1836	947.0
1837	947.0
1838	946.0
1839	947.0
1840	945.0
1841	942.0
1842	944.0
1843	945.0
1844	948.0
1845	945.0
1846	945.0
1847	944.0
1848	944.0
1849	945.0
1850	946.0
1851	946.0
1852	945.0
1853	943.0
1854	946.0
1855	947.0
1856	949.0
1857	949.0
1858	948.0
1859	946.0
1860	947.0
1861	950.0
1862	950.0
1863	950.0
1864	949.0
1865	947.0
1866	950.0
1867	946.0
1868	949.0
1869	950.0
1870	948.0
1871	946.0
1872	946.0
1873	947.0
1874	949.0
1875	949.0
1876	947.0
1877	945.0
1878	946.0
1879	947.0
1880	949.0
1881	948.0
1882	947.0
1883	946.0
1884	948.0
1885	948.0
1886	950.0
1887	950.0
1888	951.0
1889	946.0
1890	951.0
1891	951.0
1892	952.0
1893	949.0
1894	948.0
1895	944.0
1896	946.0
1897	949.0
1898	949.0
1899	950.0
1900	947.0
1901	946.0
1902	946.0
1903	946.0
1904	946.0
1905	949.0
1906	947.0
1907	945.0
1908	948.0
1909	950.0
1910	949.0
1911	949.0
1912	946.0
1913	943.0
1914	949.0
1915	950.0
1916	952.0
1917	949.0
1918	947.0
1919	948.0
1920	950.0
1921	952.0
1922	955.0
1923	955.0
1924	958.0
1925	958.0
1926	961.0
1927	962.0
1928	965.0
1929	967.0
1930	967.0
1931	965.0
1932	968.0
1933	970.0
1934	968.0
1935	968.0
1936	968.0
1937	966.0
1938	966.0
1939	968.0
1940	969.0
1941	968.0
1942	967.0
1943	966.0
1944	966.0
1945	968.0
1946	968.0
1947	967.0
1948	966.0
1949	964.0
1950	965.0
1951	967.0
1952	968.0
1953	967.0
1954	967.0
1955	965.0
1956	967.0
1957	968.0
1958	969.0
1959	968.0
1960	966.0
1961	962.0
1962	963.0
1963	967.0
1964	970.0
1965	970.0
1966	969.0
1967	967.0
1968	967.0
1969	970.0
1970	971.0
1971	971.0
1972	971.0
1973	968.0
1974	971.0
1975	975.0
1976	977.0
1977	977.0
1978	974.0
1979	974.0
1980	975.0
1981	981.0
1982	980.0
1983	975.0
1984	973.0
1985	978.0
1986	983.0
1987	982.0
1988	980.0
1989	978.0
1990	976.0
1991	976.0
1992	975.0
1993	974.0
1994	970.0
1995	967.0
1996	961.0
1997	960.0
1998	960.0
1999	962.0
2000	958.0
2001	956.0
2002	955.0
2003	952.0
2004	951.0
2005	952.0
2006	954.0
2007	953.0
2008	949.0
2009	947.0
2010	949.0
2011	950.0
2012	951.0
2013	951.0
2014	950.0
2015	948.0
2016	952.0
2017	954.0
2018	953.0
2019	953.0
2020	954.0
2021	951.0
2022	954.0
2023	954.0
2024	956.0
2025	953.0
2026	954.0
2027	949.0
2028	951.0
2029	949.0
2030	944.0
2031	938.0
2032	929.0
2033	920.0
2034	920.0
2035	914.0
2036	910.0
2037	916.0
2038	935.0
2039	963.0
2040	996.0
2041	1029.0
2042	1076.0
2043	1126.0
2044	1171.0
2045	1193.0
2046	1199.0
2047	1171.0
2048	1104.0
2049	1019.0
2050	957.0
2051	928.0
2052	930.0
2053	941.0
2054	949.0
2055	951.0
2056	947.0
2057	944.0
2058	948.0
2059	946.0
2060	949.0
2061	947.0
2062	945.0
2063	943.0
2064	946.0
2065	948.0
2066	947.0
2067	947.0
2068	945.0
2069	944.0
2070	943.0
2071	944.0
2072	946.0
2073	946.0
2074	945.0
2075	944.0
2076	946.0
2077	947.0
2078	946.0
2079	947.0
2080	942.0
2081	940.0
2082	943.0
2083	942.0
2084	946.0
2085	946.0
2086	946.0
2087	944.0
2088	944.0
2089	946.0
2090	949.0
2091	948.0
2092	945.0
2093	944.0
2094	946.0
2095	944.0
2096	946.0
2097	945.0
2098	942.0
2099	941.0
2100	943.0
2101	947.0
2102	947.0
2103	948.0
2104	944.0
2105	944.0
2106	945.0
2107	946.0
2108	948.0
2109	949.0
2110	945.0
2111	945.0
2112	947.0
2113	948.0
2114	949.0
2115	947.0
2116	946.0
2117	944.0
2118	944.0
2119	947.0
2120	948.0
2121	945.0
2122	946.0
2123	944.0
2124	945.0
2125	947.0
2126	948.0
2127	947.0
2128	945.0
2129	943.0
2130	944.0
2131	946.0
2132	948.0
2133	948.0
2134	947.0
2135	943.0
2136	945.0
2137	944.0
2138	946.0
2139	944.0
2140	943.0
2141	939.0
2142	940.0
2143	943.0
2144	944.0
2145	943.0
2146	943.0
2147	941.0
2148	944.0
2149	946.0
2150	948.0
2151	947.0
2152	945.0
2153	943.0
2154	946.0
2155	950.0
2156	950.0
2157	950.0
2158	947.0
2159	950.0
2160	953.0
2161	955.0
2162	956.0
2163	957.0
2164	956.0
2165	953.0
2166	957.0
2167	959.0
2168	962.0
2169	963.0
2170	963.0
2171	960.0
2172	961.0
2173	962.0
2174	963.0
2175	963.0
2176	958.0
2177	959.0
2178	955.0
2179	959.0
2180	961.0
2181	961.0
2182	963.0
2183	962.0
2184	962.0
2185	964.0
2186	963.0
2187	963.0
2188	961.0
2189	960.0
2190	959.0
2191	961.0
2192	963.0
2193	961.0
2194	959.0
2195	959.0
2196	958.0
2197	961.0
2198	961.0
2199	962.0
2200	958.0
2201	956.0
2202	957.0
2203	958.0
2204	955.0
2205	953.0
2206	951.0
2207	950.0
2208	955.0
2209	956.0
2210	956.0
2211	955.0
2212	952.0
2213	951.0
2214	952.0
2215	952.0
2216	955.0
2217	953.0
2218	951.0
2219	954.0
2220	952.0
2221	954.0
2222	956.0
2223	955.0
2224	953.0
2225	950.0
2226	954.0
2227	954.0
2228	954.0
2229	955.0
2230	954.0
2231	953.0
2232	952.0
2233	955.0
2234	953.0
2235	954.0
2236	952.0
2237	950.0
2238	953.0
2239	953.0
2240	954.0
2241	953.0
2242	952.0
2243	946.0
2244	947.0
2245	952.0
2246	952.0
2247	950.0
2248	950.0
2249	946.0
2250	949.0
2251	950.0
2252	954.0
2253	956.0
2254	955.0
2255	952.0
2256	952.0
2257	954.0
2258	954.0
2259	957.0
2260	952.0
2261	951.0
2262	951.0
2263	952.0
2264	952.0
2265	951.0
2266	949.0
2267	947.0
2268	947.0
2269	951.0
2270	950.0
2271	949.0
2272	950.0
2273	949.0
2274	951.0
2275	953.0
2276	953.0
2277	952.0
2278	951.0
2279	950.0
2280	952.0
2281	954.0
2282	956.0
2283	955.0
2284	956.0
2285	954.0
2286	955.0
2287	954.0
2288	952.0
2289	954.0
2290	952.0
2291	950.0
2292	952.0
2293	952.0
2294	953.0
2295	952.0
2296	949.0
2297	949.0
2298	950.0
2299	954.0
2300	953.0
2301	952.0
2302	951.0
2303	949.0
2304	950.0
2305	951.0
2306	952.0
2307	953.0
2308	952.0
2309	952.0
2310	954.0
2311	956.0
2312	955.0
2313	955.0
2314	953.0
2315	952.0
2316	952.0
2317	951.0
2318	955.0
2319	953.0
2320	954.0
2321	952.0
2322	953.0
2323	952.0
2324	955.0
2325	957.0
2326	958.0
2327	958.0
2328	962.0
2329	963.0
2330	964.0
2331	963.0
2332	965.0
2333	963.0
2334	967.0
2335	969.0
2336	971.0
2337	973.0
2338	973.0
2339	972.0
2340	971.0
2341	973.0
2342	973.0
2343	972.0
2344	968.0
2345	966.0
2346	968.0
2347	970.0
2348	973.0
2349	969.0
2350	966.0
2351	960.0
2352	964.0
2353	965.0
2354	970.0
2355	971.0
2356	970.0
2357	967.0
2358	964.0
2359	962.0
2360	961.0
2361	960.0
2362	954.0
2363	950.0
2364	951.0
2365	951.0
2366	951.0
2367	950.0
2368	950.0
2369	950.0
2370	948.0
2371	952.0
2372	949.0
2373	949.0
2374	944.0
2375	940.0
2376	943.0
2377	944.0
2378	947.0
2379	948.0
2380	944.0
2381	941.0
2382	943.0
2383	945.0
2384	945.0
2385	945.0
2386	942.0
2387	938.0
2388	936.0
2389	933.0
2390	926.0
2391	927.0
2392	920.0
2393	910.0
2394	909.0
2395	919.0
2396	940.0
2397	963.0
2398	986.0
2399	1020.0
2400	1068.0
2401	1121.0
2402	1167.0
2403	1193.0
2404	1201.0
2405	1182.0
2406	1136.0
2407	1069.0
2408	1010.0
2409	967.0
2410	939.0
2411	924.0
2412	914.0
2413	917.0
2414	924.0
2415	931.0
2416	934.0
2417	934.0
2418	937.0
2419	940.0
2420	942.0
2421	942.0
2422	941.0
2423	940.0
2424	939.0
2425	940.0
2426	938.0
2427	938.0
2428	936.0
2429	934.0
2430	934.0
2431	938.0
2432	938.0
2433	938.0
2434	935.0
2435	935.0
2436	936.0
2437	939.0
2438	938.0
2439	938.0
2440	939.0
2441	935.0
2442	935.0
2443	938.0
2444	937.0
2445	937.0
2446	935.0
2447	935.0
2448	937.0
2449	938.0
2450	939.0
2451	938.0
2452	938.0
2453	936.0
2454	940.0
2455	938.0
2456	939.0
2457	938.0
2458	936.0
2459	936.0
2460	938.0
2461	938.0
2462	941.0
2463	939.0
2464	938.0
2465	933.0
2466	935.0
2467	935.0
2468	938.0
2469	938.0
2470	936.0
2471	936.0
2472	937.0
2473	938.0
2474	941.0
2475	941.0
2476	939.0
2477	939.0
2478	940.0
2479	943.0
2480	943.0
2481	941.0
2482	941.0
2483	939.0
2484	938.0
2485	943.0
2486	943.0
2487	943.0
2488	943.0
2489	938.0
2490	941.0
2491	942.0
2492	941.0
2493	938.0
2494	935.0
2495	931.0
2496	932.0
2497	934.0
2498	933.0
2499	932.0
2500	931.0
2501	927.0
2502	925.0
2503	929.0
2504	926.0
2505	924.0
2506	925.0
2507	921.0
2508	924.0
2509	927.0
2510	926.0
2511	927.0
2512	924.0
2513	924.0
2514	926.0
2515	928.0
2516	932.0
2517	932.0
2518	930.0
2519	931.0
2520	936.0
2521	938.0
2522	939.0
2523	942.0
2524	942.0
2525	944.0
2526	946.0
2527	948.0
2528	953.0
2529	954.0
2530	953.0
2531	954.0
2532	956.0
2533	958.0
2534	959.0
2535	963.0
2536	960.0
2537	961.0
2538	963.0
2539	964.0
2540	963.0
2541	963.0
2542	962.0
2543	958.0
2544	962.0
2545	961.0
2546	961.0
2547	960.0
2548	959.0
2549	959.0
2550	959.0
2551	962.0
2552	962.0
2553	961.0
2554	959.0
2555	958.0
2556	959.0
2557	959.0
2558	961.0
2559	960.0
2560	958.0
2561	957.0
2562	958.0
2563	961.0
2564	960.0
2565	960.0
2566	957.0
2567	957.0
2568	959.0
2569	959.0
2570	960.0
2571	960.0
2572	959.0
2573	954.0
2574	955.0
2575	955.0
2576	957.0
2577	955.0
2578	953.0
2579	953.0
2580	953.0
2581	955.0
2582	957.0
2583	957.0
2584	955.0
2585	953.0
2586	956.0
2587	957.0
2588	958.0
2589	957.0
2590	955.0
2591	954.0
2592	954.0
2593	956.0
2594	957.0
2595	958.0
2596	952.0
2597	953.0
2598	955.0
2599	957.0
2600	955.0
2601	954.0
2602	952.0
2603	948.0
2604	950.0
2605	955.0
2606	955.0
2607	954.0
2608	953.0
2609	951.0
2610	952.0
2611	955.0
2612	955.0
2613	954.0
2614	952.0
2615	952.0
2616	954.0
2617	953.0
2618	956.0
2619	955.0
2620	953.0
2621	953.0
2622	953.0
2623	956.0
2624	956.0
2625	955.0
2626	951.0
2627	950.0
2628	954.0
2629	958.0
2630	960.0
2631	961.0
2632	965.0
2633	963.0
2634	965.0
2635	964.0
2636	967.0
2637	969.0
2638	972.0
2639	969.0
2640	971.0
2641	972.0
2642	974.0
2643	975.0
2644	973.0
2645	971.0
2646	972.0
2647	972.0
2648	974.0
2649	972.0
2650	968.0
2651	968.0
2652	969.0
2653	967.0
2654	968.0
2655	973.0
2656	975.0
2657	975.0
2658	972.0
2659	967.0
2660	966.0
2661	964.0
2662	960.0
2663	957.0
2664	953.0
2665	954.0
2666	953.0
2667	953.0
2668	949.0
2669	947.0
2670	948.0
2671	952.0
2672	954.0
2673	952.0
2674	951.0
2675	950.0
2676	950.0
2677	951.0
2678	952.0
2679	951.0
2680	950.0
2681	947.0
2682	947.0
2683	951.0
2684	952.0
2685	948.0
2686	947.0
2687	945.0
2688	945.0
2689	947.0
2690	948.0
2691	945.0
2692	939.0
2693	931.0
2694	924.0
2695	921.0
2696	918.0
2697	912.0
2698	907.0
2699	918.0
2700	942.0
2701	973.0
2702	1003.0
2703	1045.0
2704	1095.0
2705	1144.0
2706	1186.0
2707	1202.0
2708	1190.0
2709	1140.0
2710	1061.0
2711	983.0
2712	934.0
2713	919.0
2714	925.0
2715	931.0
2716	937.0
2717	941.0
2718	941.0
2719	941.0
2720	944.0
2721	945.0
2722	943.0
2723	939.0
2724	937.0
2725	941.0
2726	941.0
2727	941.0
2728	941.0
2729	938.0
2730	940.0
2731	942.0
2732	943.0
2733	940.0
2734	942.0
2735	940.0
2736	944.0
2737	945.0
2738	947.0
2739	944.0
2740	944.0
2741	944.0
2742	944.0
2743	945.0
2744	944.0
2745	944.0
2746	944.0
2747	942.0
2748	945.0
2749	942.0
2750	944.0
2751	945.0
2752	943.0
2753	942.0
2754	941.0
2755	943.0
2756	944.0
2757	945.0
2758	943.0
2759	941.0
2760	943.0
2761	941.0
2762	942.0
2763	943.0
2764	943.0
2765	942.0
2766	943.0
2767	944.0
2768	945.0
2769	943.0
2770	943.0
2771	944.0
2772	945.0
2773	946.0
2774	945.0
2775	946.0
2776	945.0
2777	940.0
2778	941.0
2779	943.0
2780	944.0
2781	944.0
2782	941.0
2783	940.0
2784	942.0
2785	945.0
2786	944.0
2787	943.0
2788	941.0
2789	937.0
2790	941.0
2791	941.0
2792	944.0
2793	943.0
2794	940.0
2795	938.0
2796	939.0
2797	942.0
2798	942.0
2799	943.0
2800	941.0
2801	939.0
2802	939.0
2803	940.0
2804	942.0
2805	942.0
2806	940.0
2807	938.0
2808	939.0
2809	940.0
2810	943.0
2811	941.0
2812	942.0
2813	942.0
2814	947.0
2815	950.0
2816	952.0
2817	954.0
2818	954.0
2819	954.0
2820	957.0
2821	960.0
2822	963.0
2823	961.0
2824	961.0
2825	960.0
2826	963.0
2827	963.0
2828	965.0
2829	966.0
2830	965.0
2831	965.0
2832	967.0
2833	967.0
2834	970.0
2835	968.0
2836	968.0
2837	965.0
2838	968.0
2839	967.0
2840	969.0
2841	967.0
2842	965.0
2843	963.0
2844	965.0
2845	967.0
2846	967.0
2847	966.0
2848	964.0
2849	962.0
2850	965.0
2851	964.0
2852	966.0
2853	967.0
2854	963.0
2855	962.0
2856	964.0
2857	965.0
2858	963.0
2859	964.0
2860	963.0
2861	960.0
2862	960.0
2863	962.0
2864	964.0
2865	962.0
2866	960.0
2867	956.0
2868	958.0
2869	962.0
2870	961.0
2871	959.0
2872	959.0
2873	955.0
2874	958.0
2875	960.0
2876	960.0
2877	957.0
2878	957.0
2879	953.0
2880	956.0
2881	960.0
2882	961.0
2883	958.0
2884	956.0
2885	956.0
2886	954.0
2887	958.0
2888	958.0
2889	956.0
2890	954.0
2891	953.0
2892	955.0
2893	957.0
2894	957.0
2895	956.0
2896	956.0
2897	955.0
2898	957.0
2899	957.0
2900	959.0
2901	959.0
2902	957.0
2903	956.0
2904	956.0
2905	960.0
2906	961.0
2907	960.0
2908	957.0
2909	957.0
2910	960.0
2911	959.0
2912	961.0
2913	960.0
2914	960.0
2915	955.0
2916	957.0
2917	960.0
2918	962.0
2919	960.0
2920	960.0
2921	956.0
2922	958.0
2923	960.0
2924	962.0
2925	962.0
2926	962.0
2927	965.0
2928	968.0
2929	973.0
2930	974.0
2931	974.0
2932	973.0
2933	972.0
2934	976.0
2935	980.0
2936	978.0
2937	978.0
2938	981.0
2939	980.0
2940	979.0
2941	978.0
2942	978.0
2943	977.0
2944	975.0
2945	973.0
2946	976.0
2947	977.0
2948	975.0
2949	977.0
2950	978.0
2951	980.0
2952	985.0
2953	980.0
2954	975.0
2955	972.0
2956	970.0
2957	966.0
2958	964.0
2959	963.0
2960	963.0
2961	960.0
2962	958.0
2963	954.0
2964	954.0
2965	957.0
2966	957.0
2967	957.0
2968	956.0
2969	954.0
2970	954.0
2971	955.0
2972	957.0
2973	955.0
2974	953.0
2975	950.0
2976	954.0
2977	955.0
2978	957.0
2979	957.0
2980	957.0
2981	953.0
2982	953.0
2983	955.0
2984	953.0
2985	945.0
2986	934.0
2987	928.0
2988	923.0
2989	919.0
2990	915.0
2991	924.0
2992	945.0
2993	973.0
2994	1010.0
2995	1053.0
2996	1109.0
2997	1161.0
2998	1199.0
2999	1209.0
3000	1183.0
3001	1118.0
3002	1028.0
3003	959.0
3004	930.0
3005	927.0
3006	942.0
3007	951.0
3008	953.0
3009	951.0
3010	948.0
3011	947.0
3012	948.0
3013	950.0
3014	950.0
3015	949.0
3016	947.0
3017	945.0
3018	947.0
3019	948.0
3020	947.0
3021	949.0
3022	946.0
3023	943.0
3024	943.0
3025	946.0
3026	947.0
3027	947.0
3028	946.0
3029	942.0
3030	944.0
3031	946.0
3032	947.0
3033	947.0
3034	945.0
3035	946.0
3036	945.0
3037	948.0
3038	949.0
3039	948.0
3040	947.0
3041	944.0
3042	947.0
3043	948.0
3044	949.0
3045	948.0
3046	945.0
3047	945.0
3048	947.0
3049	949.0
3050	950.0
3051	951.0
3052	947.0
3053	945.0
3054	947.0
3055	947.0
3056	950.0
3057	949.0
3058	950.0
3059	949.0
3060	949.0
3061	950.0
3062	953.0
3063	951.0
3064	948.0
3065	949.0
3066	950.0
3067	948.0
3068	951.0
3069	950.0
3070	949.0
3071	946.0
3072	948.0
3073	949.0
3074	948.0
3075	950.0
3076	949.0
3077	948.0
3078	947.0
3079	947.0
3080	950.0
3081	949.0
3082	949.0
3083	948.0
3084	948.0
3085	948.0
3086	948.0
3087	949.0
3088	946.0
3089	945.0
3090	947.0
3091	947.0
3092	949.0
3093	949.0
3094	947.0
3095	947.0
3096	946.0
3097	950.0
3098	951.0
3099	951.0
3100	949.0
3101	947.0
3102	954.0
3103	955.0
3104	959.0
3105	959.0
3106	958.0
3107	959.0
3108	959.0
3109	961.0
3110	961.0
3111	961.0
3112	964.0
3113	964.0
3114	967.0
3115	970.0
3116	971.0
3117	972.0
3118	969.0
3119	967.0
3120	971.0
3121	973.0
3122	974.0
3123	970.0
3124	968.0
3125	967.0
3126	967.0
3127	968.0
3128	970.0
3129	970.0
3130	970.0
3131	967.0
3132	968.0
3133	969.0
3134	970.0
3135	971.0
3136	969.0
3137	966.0
3138	967.0
3139	967.0
3140	969.0
3141	970.0
3142	968.0
3143	965.0
3144	968.0
3145	970.0
3146	970.0
3147	969.0
3148	967.0
3149	964.0
3150	965.0
3151	966.0
3152	965.0
3153	964.0
3154	966.0
3155	963.0
3156	965.0
3157	966.0
3158	965.0
3159	966.0
3160	962.0
3161	960.0
3162	961.0
3163	961.0
3164	964.0
3165	963.0
3166	961.0
3167	958.0
3168	960.0
3169	963.0
3170	961.0
3171	963.0
3172	961.0
3173	959.0
3174	962.0
3175	965.0
3176	964.0
3177	963.0
3178	962.0
3179	959.0
3180	961.0
3181	961.0
3182	963.0
3183	963.0
3184	959.0
3185	960.0
3186	960.0
3187	962.0
3188	963.0
3189	960.0
3190	960.0
3191	960.0
3192	962.0
3193	963.0
3194	966.0
3195	967.0
3196	966.0
3197	963.0
3198	962.0
3199	964.0
3200	964.0
3201	962.0
3202	961.0
3203	961.0
3204	962.0
3205	965.0
3206	964.0
3207	965.0
3208	961.0
3209	962.0
3210	966.0
3211	971.0
3212	976.0
3213	973.0
3214	976.0
3215	974.0
3216	979.0
3217	979.0
3218	981.0
3219	982.0
3220	984.0
3221	985.0
3222	985.0
3223	988.0
3224	989.0
3225	988.0
3226	983.0
3227	981.0
3228	982.0
3229	982.0
3230	982.0
3231	982.0
3232	981.0
3233	979.0
3234	982.0
3235	988.0
3236	990.0
3237	987.0
3238	976.0
3239	973.0
3240	973.0
3241	970.0
3242	969.0
3243	967.0
3244	964.0
3245	964.0
3246	961.0
3247	963.0
3248	964.0
3249	965.0
3250	964.0
3251	961.0
3252	962.0
3253	962.0
3254	964.0
3255	964.0
3256	963.0
3257	961.0
3258	959.0
3259	960.0
3260	960.0
3261	960.0
3262	959.0
3263	956.0
3264	957.0
3265	959.0
3266	961.0
3267	960.0
3268	955.0
3269	950.0
3270	945.0
3271	939.0
3272	935.0
3273	931.0
3274	922.0
3275	918.0
3276	927.0
3277	950.0
3278	977.0
3279	1006.0
3280	1045.0
3281	1099.0
3282	1155.0
3283	1188.0
3284	1197.0
3285	1171.0
3286	1114.0
3287	1036.0
3288	970.0
3289	938.0
3290	932.0
3291	941.0
3292	947.0
3293	951.0
3294	953.0
3295	953.0
3296	955.0
3297	954.0
3298	954.0
3299	952.0
3300	955.0
3301	956.0
3302	956.0
3303	957.0
3304	957.0
3305	953.0
3306	955.0
3307	956.0
3308	957.0
3309	956.0
3310	954.0
3311	951.0
3312	952.0
3313	951.0
3314	954.0
3315	955.0
3316	951.0
3317	952.0
3318	954.0
3319	953.0
3320	954.0
3321	953.0
3322	954.0
3323	952.0
3324	957.0
3325	957.0
3326	958.0
3327	956.0
3328	954.0
3329	954.0
3330	955.0
3331	957.0
3332	955.0
3333	953.0
3334	953.0
3335	950.0
3336	953.0
3337	954.0
3338	955.0
3339	951.0
3340	951.0
3341	950.0
3342	951.0
3343	953.0
3344	955.0
3345	955.0
3346	955.0
3347	956.0
3348	957.0
3349	959.0
3350	957.0
3351	955.0
3352	954.0
3353	954.0
3354	953.0
3355	953.0
3356	952.0
3357	954.0
3358	952.0
3359	951.0
3360	955.0
3361	955.0
3362	958.0
3363	954.0
3364	955.0
3365	953.0
3366	954.0
3367	956.0
3368	957.0
3369	954.0
3370	951.0
3371	948.0
3372	947.0
3373	953.0
3374	952.0
3375	953.0
3376	950.0
3377	947.0
3378	950.0
3379	950.0
3380	954.0
3381	955.0
3382	951.0
3383	951.0
3384	952.0
3385	955.0
3386	958.0
3387	958.0
3388	958.0
3389	957.0
3390	961.0
3391	962.0
3392	967.0
3393	966.0
3394	966.0
3395	964.0
3396	968.0
3397	969.0
3398	972.0
3399	972.0
3400	970.0
3401	971.0
3402	973.0
3403	974.0
3404	975.0
3405	975.0
3406	973.0
3407	971.0
3408	972.0
3409	973.0
3410	976.0
3411	974.0
3412	973.0
3413	969.0
3414	969.0
3415	971.0
3416	970.0
3417	969.0
3418	968.0
3419	966.0
3420	968.0
3421	969.0
3422	970.0
3423	970.0
3424	968.0
3425	966.0
3426	968.0
3427	967.0
3428	969.0
3429	966.0
3430	968.0
3431	966.0
3432	968.0
3433	967.0
3434	969.0
3435	968.0
3436	965.0
3437	963.0
3438	964.0
3439	964.0
3440	963.0
3441	961.0
3442	960.0
3443	962.0
3444	962.0
3445	964.0
3446	962.0
3447	962.0
3448	960.0
3449	959.0
3450	962.0
3451	960.0
3452	962.0
3453	962.0
3454	961.0
3455	959.0
3456	961.0
3457	963.0
3458	961.0
3459	962.0
3460	960.0
3461	959.0
3462	959.0
3463	960.0
3464	963.0
3465	963.0
3466	964.0
3467	961.0
3468	964.0
3469	962.0
3470	961.0
3471	963.0
3472	962.0
3473	960.0
3474	962.0
3475	964.0
3476	965.0
3477	964.0
3478	961.0
3479	959.0
3480	959.0
3481	963.0
3482	962.0
3483	966.0
3484	961.0
3485	959.0
3486	960.0
3487	966.0
3488	968.0
3489	972.0
3490	972.0
3491	971.0
3492	972.0
3493	974.0
3494	978.0
3495	980.0
3496	980.0
3497	977.0
3498	980.0
3499	983.0
3500	983.0
3501	982.0
3502	982.0
3503	978.0
3504	976.0
3505	978.0
3506	979.0
3507	977.0
3508	974.0
3509	971.0
3510	972.0
3511	975.0
3512	981.0
3513	981.0
3514	975.0
3515	968.0
3516	969.0
3517	969.0
3518	965.0
3519	962.0
3520	959.0
3521	956.0
3522	956.0
3523	959.0
3524	961.0
3525	962.0
3526	961.0
3527	958.0
3528	958.0
3529	959.0
3530	959.0
3531	957.0
3532	955.0
3533	954.0
3534	954.0
3535	954.0
3536	955.0
3537	954.0
3538	951.0
3539	952.0
3540	954.0
3541	953.0
3542	955.0
3543	955.0
3544	954.0
3545	951.0
3546	948.0
3547	943.0
3548	939.0
3549	936.0
3550	930.0
3551	920.0
3552	916.0
3553	926.0
3554	946.0
3555	972.0
3556	1001.0
3557	1041.0
3558	1096.0
3559	1147.0
3560	1180.0
3561	1191.0
3562	1168.0
3563	1106.0
3564	1030.0
3565	973.0
3566	941.0
3567	930.0
3568	931.0
3569	937.0
3570	945.0
3571	949.0
3572	950.0
3573	949.0
3574	949.0
3575	946.0
3576	944.0
3577	948.0
3578	947.0
3579	947.0
3580	947.0
3581	947.0
3582	950.0
3583	950.0
3584	952.0
3585	948.0
3586	948.0
3587	947.0
3588	950.0
3589	950.0
3590	951.0
3591	949.0
3592	947.0
3593	946.0
3594	946.0
3595	947.0
3596	947.0
3597	945.0
3598	946.0
3599	944.0
3600	943.0
3601	946.0
3602	945.0
3603	946.0
3604	943.0
3605	943.0
3606	944.0
3607	949.0
3608	948.0
3609	946.0
3610	945.0
3611	945.0
3612	946.0
3613	946.0
3614	947.0
3615	943.0
3616	944.0
3617	943.0
3618	945.0
3619	946.0
3620	945.0
3621	946.0
3622	944.0
3623	943.0
3624	943.0
3625	946.0
3626	946.0
3627	945.0
3628	944.0
3629	944.0
3630	945.0
3631	948.0
3632	950.0
3633	948.0
3634	947.0
3635	945.0
3636	946.0
3637	948.0
3638	948.0
3639	947.0
3640	946.0
3641	946.0
3642	944.0
3643	944.0
3644	943.0
3645	941.0
3646	940.0
3647	938.0
3648	938.0
3649	939.0
3650	940.0
3651	938.0
3652	935.0
3653	931.0
3654	933.0
3655	936.0
3656	939.0
3657	937.0
3658	934.0
3659	936.0
3660	935.0
3661	939.0
3662	939.0
3663	939.0
3664	938.0
3665	938.0
3666	941.0
3667	941.0
3668	947.0
3669	949.0
3670	947.0
3671	950.0
3672	952.0
3673	954.0
3674	957.0
3675	957.0
3676	959.0
3677	960.0
3678	959.0
3679	963.0
3680	965.0
3681	964.0
3682	966.0
3683	965.0
3684	966.0
3685	966.0
3686	967.0
3687	967.0
3688	967.0
3689	966.0
3690	966.0
3691	967.0
3692	970.0
3693	970.0
3694	968.0
3695	966.0
3696	967.0
3697	969.0
3698	969.0
3699	969.0
3700	966.0
3701	963.0
3702	963.0
3703	964.0
3704	968.0
3705	966.0
3706	963.0
3707	961.0
3708	962.0
3709	965.0
3710	966.0
3711	964.0
3712	963.0
3713	963.0
3714	962.0
3715	964.0
3716	965.0
3717	963.0
3718	963.0
3719	961.0
3720	962.0
3721	962.0
3722	965.0
3723	964.0
3724	963.0
3725	962.0
3726	963.0
3727	963.0
3728	965.0
3729	964.0
3730	961.0
3731	959.0
3732	960.0
3733	960.0
3734	961.0
3735	962.0
3736	959.0
3737	957.0
3738	958.0
3739	960.0
3740	960.0
3741	962.0
3742	958.0
3743	958.0
3744	959.0
3745	962.0
3746	963.0
3747	963.0
3748	960.0
3749	958.0
3750	959.0
3751	964.0
3752	962.0
3753	963.0
3754	961.0
3755	958.0
3756	958.0
3757	958.0
3758	960.0
3759	959.0
3760	959.0
3761	957.0
3762	959.0
3763	961.0
3764	962.0
3765	961.0
3766	960.0
3767	959.0
3768	961.0
3769	962.0
3770	963.0
3771	962.0
3772	961.0
3773	960.0
3774	961.0
3775	962.0
3776	965.0
3777	965.0
3778	963.0
3779	962.0
3780	964.0
3781	968.0
3782	969.0
3783	971.0
3784	969.0
3785	969.0
3786	972.0
3787	976.0
3788	976.0
3789	977.0
3790	976.0
3791	977.0
3792	979.0
3793	981.0
3794	983.0
3795	983.0
3796	982.0
3797	981.0
3798	980.0
3799	980.0
3800	981.0
3801	980.0
3802	980.0
3803	978.0
3804	978.0
3805	976.0
3806	982.0
3807	980.0
3808	978.0
3809	973.0
3810	977.0
3811	982.0
3812	986.0
3813	983.0
3814	979.0
3815	972.0
3816	969.0
3817	968.0
3818	967.0
3819	963.0
3820	960.0
3821	961.0
3822	957.0
3823	959.0
3824	957.0
3825	960.0
3826	959.0
3827	960.0
3828	959.0
3829	959.0
3830	962.0
3831	963.0
3832	960.0
3833	960.0
3834	958.0
3835	960.0
3836	960.0
3837	958.0
3838	958.0
3839	952.0
3840	953.0
3841	958.0
3842	959.0
3843	959.0
3844	957.0
3845	954.0
3846	956.0
3847	955.0
3848	953.0
3849	947.0
3850	939.0
3851	934.0
3852	930.0
3853	927.0
3854	922.0
3855	921.0
3856	933.0
3857	959.0
3858	991.0
3859	1026.0
3860	1074.0
3861	1127.0
3862	1172.0
3863	1201.0
3864	1211.0
3865	1191.0
3866	1129.0
3867	1048.0
3868	978.0
3869	939.0
3870	933.0
3871	940.0
3872	948.0
3873	952.0
3874	951.0
3875	949.0
3876	948.0
3877	953.0
3878	953.0
3879	950.0
3880	949.0
3881	947.0
3882	948.0
3883	951.0
3884	950.0
3885	950.0
3886	951.0
3887	948.0
3888	950.0
3889	949.0
3890	951.0
3891	950.0
3892	948.0
3893	949.0
3894	951.0
3895	952.0
3896	952.0
3897	953.0
3898	953.0
3899	950.0
3900	951.0
3901	953.0
3902	954.0
3903	954.0
3904	954.0
3905	952.0
3906	952.0
3907	952.0
3908	954.0
3909	953.0
3910	951.0
3911	950.0
3912	952.0
3913	954.0
3914	953.0
3915	954.0
3916	953.0
3917	950.0
3918	949.0
3919	952.0
3920	954.0
3921	955.0
3922	954.0
3923	950.0
3924	950.0
3925	953.0
3926	954.0
3927	955.0
3928	952.0
3929	950.0
3930	951.0
3931	952.0
3932	954.0
3933	953.0
3934	951.0
3935	951.0
3936	950.0
3937	951.0
3938	954.0
3939	954.0
3940	952.0
3941	952.0
3942	953.0
3943	955.0
3944	954.0
3945	955.0
3946	953.0
3947	950.0
3948	951.0
3949	953.0
3950	952.0
3951	951.0
3952	951.0
3953	948.0
3954	947.0
3955	949.0
3956	950.0
3957	949.0
3958	947.0
3959	945.0
3960	949.0
3961	947.0
3962	948.0
3963	950.0
3964	947.0
3965	947.0
3966	948.0
3967	950.0
3968	952.0
3969	954.0
3970	957.0
3971	958.0
3972	961.0
3973	965.0
3974	966.0
3975	966.0
3976	967.0
3977	966.0
3978	968.0
3979	968.0
3980	972.0
3981	973.0
3982	970.0
3983	969.0
3984	972.0
3985	974.0
3986	975.0
3987	974.0
3988	972.0
3989	971.0
3990	975.0
3991	977.0
3992	975.0
3993	976.0
3994	974.0
3995	971.0
3996	974.0
3997	974.0
3998	974.0
3999	974.0
4000	973.0
4001	971.0
4002	972.0
4003	976.0
4004	974.0
4005	975.0
4006	974.0
4007	970.0
4008	971.0
4009	970.0
4010	971.0
4011	971.0
4012	969.0
4013	967.0
4014	969.0
4015	971.0
4016	970.0
4017	970.0
4018	968.0
4019	967.0
4020	967.0
4021	968.0
4022	967.0
4023	968.0
4024	967.0
4025	964.0
4026	966.0
4027	967.0
4028	970.0
4029	968.0
4030	965.0
4031	966.0
4032	966.0
4033	965.0
4034	966.0
4035	967.0
4036	963.0
4037	961.0
4038	962.0
4039	962.0
4040	966.0
4041	965.0
4042	962.0
4043	960.0
4044	961.0
4045	962.0
4046	964.0
4047	964.0
4048	961.0
4049	960.0
4050	961.0
4051	960.0
4052	966.0
4053	964.0
4054	964.0
4055	961.0
4056	962.0
4057	964.0
4058	964.0
4059	966.0
4060	962.0
4061	959.0
4062	961.0
4063	963.0
4064	963.0
4065	963.0
4066	961.0
4067	959.0
4068	960.0
4069	962.0
4070	964.0
4071	965.0
4072	961.0
4073	960.0
4074	963.0
4075	964.0
4076	966.0
4077	965.0
4078	965.0
4079	962.0
4080	965.0
4081	965.0
4082	967.0
4083	965.0
4084	965.0
4085	962.0
4086	964.0
4087	967.0
4088	968.0
4089	969.0
4090	968.0
4091	971.0
4092	975.0
4093	978.0
4094	976.0
4095	976.0
4096	976.0
4097	975.0
4098	980.0
4099	980.0
4100	981.0
4101	984.0
4102	984.0
4103	982.0
4104	983.0
4105	985.0
4106	983.0
4107	982.0
4108	981.0
4109	979.0
4110	979.0
4111	984.0
4112	984.0
4113	982.0
4114	979.0
4115	980.0
4116	985.0
4117	988.0
4118	989.0
4119	983.0
4120	975.0
4121	971.0
4122	969.0
4123	968.0
4124	967.0
4125	964.0
4126	962.0
4127	959.0
4128	960.0
4129	959.0
4130	962.0
4131	959.0
4132	958.0
4133	956.0
4134	957.0
4135	958.0
4136	959.0
4137	960.0
4138	956.0
4139	955.0
4140	956.0
4141	958.0
4142	957.0
4143	958.0
4144	956.0
4145	956.0
4146	957.0
4147	957.0
4148	958.0
4149	957.0
4150	955.0
4151	949.0
4152	945.0
4153	938.0
4154	936.0
4155	934.0
4156	934.0
4157	929.0
4158	928.0
4159	922.0
4160	914.0
4161	909.0
4162	915.0
4163	926.0
4164	949.0
4165	974.0
4166	1000.0
4167	1036.0
4168	1081.0
4169	1129.0
4170	1172.0
4171	1196.0
4172	1202.0
4173	1170.0
4174	1109.0
4175	1027.0
4176	967.0
4177	937.0
4178	934.0
4179	937.0
4180	947.0
4181	948.0
4182	950.0
4183	950.0
4184	950.0
4185	952.0
4186	952.0
4187	950.0
4188	947.0
4189	951.0
4190	952.0
4191	951.0
4192	951.0
4193	949.0
4194	947.0
4195	952.0
4196	951.0
4197	953.0
4198	949.0
4199	948.0
4200	949.0
4201	953.0
4202	953.0
4203	952.0
4204	951.0
4205	948.0
4206	950.0
4207	953.0
4208	954.0
4209	953.0
4210	951.0
4211	948.0
4212	951.0
4213	953.0
4214	953.0
4215	951.0
4216	947.0
4217	946.0
4218	949.0
4219	953.0
4220	951.0
4221	952.0
4222	953.0
4223	951.0
4224	951.0
4225	953.0
4226	955.0
4227	955.0
4228	951.0
4229	952.0
4230	949.0
4231	953.0
4232	952.0
4233	951.0
4234	951.0
4235	950.0
4236	952.0
4237	953.0
4238	952.0
4239	951.0
4240	947.0
4241	948.0
4242	951.0
4243	953.0
4244	957.0
4245	952.0
4246	952.0
4247	947.0
4248	948.0
4249	949.0
4250	952.0
4251	952.0
4252	951.0
4253	949.0
4254	951.0
4255	953.0
4256	952.0
4257	954.0
4258	952.0
4259	950.0
4260	950.0
4261	951.0
4262	950.0
4263	948.0
4264	946.0
4265	947.0
4266	948.0
4267	950.0
4268	950.0
4269	951.0
4270	951.0
4271	946.0
4272	949.0
4273	950.0
4274	953.0
4275	951.0
4276	952.0
4277	950.0
4278	954.0
4279	956.0
4280	959.0
4281	960.0
4282	961.0
4283	959.0
4284	962.0
4285	965.0
4286	967.0
4287	966.0
4288	966.0
4289	969.0
4290	970.0
4291	971.0
4292	972.0
4293	972.0
4294	969.0
4295	969.0
4296	967.0
4297	972.0
4298	972.0
4299	971.0
4300	970.0
4301	968.0
4302	969.0
4303	973.0
4304	973.0
4305	975.0
4306	973.0
4307	972.0
4308	973.0
4309	973.0
4310	972.0
4311	971.0
4312	968.0
4313	965.0
4314	966.0
4315	969.0
4316	968.0
4317	968.0
4318	968.0
4319	967.0
4320	967.0
4321	968.0
4322	970.0
4323	967.0
4324	964.0
4325	962.0
4326	964.0
4327	966.0
4328	968.0
4329	964.0
4330	966.0
4331	962.0
4332	964.0
4333	965.0
4334	966.0
4335	967.0
4336	965.0
4337	959.0
4338	961.0
4339	962.0
4340	963.0
4341	964.0
4342	961.0
4343	958.0
4344	960.0
4345	960.0
4346	961.0
4347	960.0
4348	959.0
4349	957.0
4350	958.0
4351	959.0
4352	962.0
4353	961.0
4354	961.0
4355	957.0
4356	960.0
4357	962.0
4358	961.0
4359	962.0
4360	960.0
4361	957.0
4362	959.0
4363	959.0
4364	961.0
4365	962.0
4366	960.0
4367	958.0
4368	960.0
4369	960.0
4370	962.0
4371	958.0
4372	958.0
4373	955.0
4374	956.0
4375	958.0
4376	960.0
4377	961.0
4378	957.0
4379	957.0
4380	958.0
4381	962.0
4382	962.0
4383	961.0
4384	958.0
4385	960.0
4386	961.0
4387	964.0
4388	967.0
4389	968.0
4390	971.0
4391	972.0
4392	971.0
4393	972.0
4394	973.0
4395	972.0
4396	974.0
4397	973.0
4398	976.0
4399	978.0
4400	983.0
4401	982.0
4402	979.0
4403	977.0
4404	979.0
4405	979.0
4406	978.0
4407	979.0
4408	976.0
4409	976.0
4410	978.0
4411	977.0
4412	974.0
4413	974.0
4414	973.0
4415	977.0
4416	980.0
4417	983.0
4418	981.0
4419	976.0
4420	971.0
4421	968.0
4422	968.0
4423	970.0
4424	970.0
4425	966.0
4426	960.0
4427	957.0
4428	956.0
4429	958.0
4430	958.0
4431	957.0
4432	954.0
4433	952.0
4434	954.0
4435	954.0
4436	955.0
4437	954.0
4438	953.0
4439	951.0
4440	952.0
4441	953.0
4442	954.0
4443	956.0
4444	952.0
4445	950.0
4446	950.0
4447	953.0
4448	955.0
4449	954.0
4450	950.0
4451	947.0
4452	942.0
4453	936.0
4454	932.0
4455	926.0
4456	916.0
4457	911.0
4458	914.0
4459	927.0
4460	951.0
4461	973.0
4462	999.0
4463	1042.0
4464	1096.0
4465	1144.0
4466	1174.0
4467	1183.0
4468	1164.0
4469	1112.0
4470	1043.0
4471	987.0
4472	950.0
4473	930.0
4474	926.0
4475	930.0
4476	936.0
4477	939.0
4478	942.0
4479	942.0
4480	942.0
4481	940.0
4482	944.0
4483	945.0
4484	943.0
4485	942.0
4486	943.0
4487	940.0
4488	945.0
4489	945.0
4490	946.0
4491	945.0
4492	945.0
4493	942.0
4494	944.0
4495	944.0
4496	942.0
4497	944.0
4498	943.0
4499	942.0
4500	942.0
4501	944.0
4502	946.0
4503	946.0
4504	944.0
4505	944.0
4506	945.0
4507	946.0
4508	947.0
4509	946.0
4510	942.0
4511	942.0
4512	942.0
4513	941.0
4514	942.0
4515	943.0
4516	940.0
4517	940.0
4518	940.0
4519	941.0
4520	942.0
4521	941.0
4522	939.0
4523	939.0
4524	940.0
4525	939.0
4526	940.0
4527	942.0
4528	942.0
4529	941.0
4530	942.0
4531	942.0
4532	944.0
4533	943.0
4534	943.0
4535	939.0
4536	940.0
4537	942.0
4538	944.0
4539	943.0
4540	941.0
4541	940.0
4542	942.0
4543	942.0
4544	944.0
4545	942.0
4546	941.0
4547	940.0
4548	942.0
4549	944.0
4550	946.0
4551	944.0
4552	941.0
4553	940.0
4554	941.0
4555	941.0
4556	944.0
4557	941.0
4558	938.0
4559	934.0
4560	936.0
4561	936.0
4562	937.0
4563	937.0
4564	936.0
4565	934.0
4566	937.0
4567	936.0
4568	938.0
4569	936.0
4570	935.0
4571	935.0
4572	936.0
4573	937.0
4574	940.0
4575	941.0
4576	942.0
4577	943.0
4578	948.0
4579	949.0
4580	950.0
4581	950.0
4582	950.0
4583	952.0
4584	953.0
4585	959.0
4586	963.0
4587	962.0
4588	960.0
4589	959.0
4590	959.0
4591	961.0
4592	964.0
4593	963.0
4594	960.0
4595	958.0
4596	958.0
4597	962.0
4598	962.0
4599	962.0
4600	963.0
4601	962.0
4602	960.0
4603	963.0
4604	964.0
4605	964.0
4606	963.0
4607	960.0
4608	960.0
4609	961.0
4610	961.0
4611	962.0
4612	958.0
4613	957.0
4614	957.0
4615	960.0
4616	961.0
4617	961.0
4618	959.0
4619	958.0
4620	957.0
4621	960.0
4622	964.0
4623	964.0
4624	960.0
4625	960.0
4626	958.0
4627	960.0
4628	960.0
4629	959.0
4630	956.0
4631	953.0
4632	955.0
4633	954.0
4634	955.0
4635	955.0
4636	952.0
4637	952.0
4638	955.0
4639	956.0
4640	956.0
4641	953.0
4642	954.0
4643	954.0
4644	953.0
4645	956.0
4646	957.0
4647	956.0
4648	954.0
4649	953.0
4650	953.0
4651	953.0
4652	955.0
4653	955.0
4654	954.0
4655	952.0
4656	951.0
4657	951.0
4658	954.0
4659	954.0
4660	952.0
4661	950.0
4662	952.0
4663	954.0
4664	957.0
4665	954.0
4666	954.0
4667	955.0
4668	956.0
4669	956.0
4670	956.0
4671	956.0
4672	955.0
4673	954.0
4674	952.0
4675	954.0
4676	957.0
4677	955.0
4678	954.0
4679	954.0
4680	953.0
4681	956.0
4682	957.0
4683	958.0
4684	956.0
4685	953.0
4686	953.0
4687	958.0
4688	961.0
4689	961.0
4690	961.0
4691	960.0
4692	964.0
4693	964.0
4694	968.0
4695	971.0
4696	968.0
4697	967.0
4698	971.0
4699	977.0
4700	978.0
4701	978.0
4702	975.0
4703	973.0
4704	974.0
4705	975.0
4706	974.0
4707	973.0
4708	971.0
4709	970.0
4710	966.0
4711	968.0
4712	969.0
4713	972.0
4714	973.0
4715	972.0
4716	969.0
4717	965.0
4718	964.0
4719	963.0
4720	957.0
4721	953.0
4722	954.0
4723	954.0
4724	954.0
4725	953.0
4726	950.0
4727	950.0
4728	952.0
4729	951.0
4730	953.0
4731	951.0
4732	949.0
4733	947.0
4734	948.0
4735	949.0
4736	953.0
4737	950.0
4738	947.0
4739	946.0
4740	946.0
4741	950.0
4742	952.0
4743	950.0
4744	948.0
4745	947.0
4746	948.0
4747	949.0
4748	950.0
4749	948.0
4750	943.0
4751	935.0
4752	931.0
4753	928.0
4754	927.0
4755	919.0
4756	913.0
4757	917.0
4758	934.0
4759	959.0
4760	987.0
4761	1019.0
4762	1061.0
4763	1110.0
4764	1156.0
4765	1187.0
4766	1194.0
4767	1174.0
4768	1121.0
4769	1046.0
4770	982.0
4771	946.0
4772	932.0
4773	927.0
4774	930.0
4775	934.0
4776	939.0
4777	941.0
4778	943.0
4779	941.0
4780	941.0
4781	940.0
4782	944.0
4783	945.0
4784	947.0
4785	945.0
4786	944.0
4787	940.0
4788	942.0
4789	944.0
4790	944.0
4791	943.0
4792	943.0
4793	937.0
4794	940.0
4795	942.0
4796	943.0
4797	941.0
4798	938.0
4799	936.0
4800	937.0
4801	941.0
4802	940.0
4803	938.0
4804	941.0
4805	938.0
4806	939.0
4807	940.0
4808	940.0
4809	941.0
4810	939.0
4811	939.0
4812	940.0
4813	942.0
4814	942.0
4815	942.0
4816	940.0
4817	938.0
4818	940.0
4819	941.0
4820	945.0
4821	943.0
4822	941.0
4823	938.0
4824	940.0
4825	940.0
4826	941.0
4827	940.0
4828	939.0
4829	936.0
4830	938.0
4831	939.0
4832	941.0
4833	940.0
4834	939.0
4835	936.0
4836	938.0
4837	938.0
4838	939.0
4839	940.0
4840	941.0
4841	939.0
4842	938.0
4843	939.0
4844	941.0
4845	943.0
4846	943.0
4847	939.0
4848	941.0
4849	940.0
4850	940.0
4851	940.0
4852	937.0
4853	937.0
4854	936.0
4855	940.0
4856	938.0
4857	934.0
4858	933.0
4859	931.0
4860	931.0
4861	931.0
4862	931.0
4863	931.0
4864	930.0
4865	926.0
4866	927.0
4867	932.0
4868	933.0
4869	932.0
4870	933.0
4871	933.0
4872	936.0
4873	939.0
4874	941.0
4875	944.0
4876	943.0
4877	944.0
4878	947.0
4879	951.0
4880	951.0
4881	952.0
4882	950.0
4883	949.0
4884	953.0
4885	956.0
4886	958.0
4887	958.0
4888	958.0
4889	956.0
4890	957.0
4891	960.0
4892	963.0
4893	961.0
4894	960.0
4895	960.0
4896	960.0
4897	961.0
4898	962.0
4899	962.0
4900	961.0
4901	958.0
4902	960.0
4903	960.0
4904	962.0
4905	960.0
4906	958.0
4907	956.0
4908	958.0
4909	959.0
4910	959.0
4911	960.0
4912	956.0
4913	954.0
4914	956.0
4915	960.0
4916	961.0
4917	959.0
4918	956.0
4919	955.0
4920	955.0
4921	956.0
4922	958.0
4923	957.0
4924	955.0
4925	952.0
4926	953.0
4927	956.0
4928	958.0
4929	957.0
4930	955.0
4931	951.0
4932	950.0
4933	954.0
4934	956.0
4935	957.0
4936	952.0
4937	953.0
4938	956.0
4939	957.0
4940	957.0
4941	960.0
4942	957.0
4943	953.0
4944	954.0
4945	955.0
4946	956.0
4947	957.0
4948	954.0
4949	950.0
4950	952.0
4951	953.0
4952	954.0
4953	955.0
4954	951.0
4955	952.0
4956	952.0
4957	954.0
4958	955.0
4959	953.0
4960	953.0
4961	951.0
4962	952.0
4963	955.0
4964	955.0
4965	954.0
4966	953.0
4967	952.0
4968	953.0
4969	954.0
4970	957.0
4971	957.0
4972	953.0
4973	955.0
4974	956.0
4975	958.0
4976	956.0
4977	955.0
4978	954.0
4979	953.0
4980	954.0
4981	957.0
4982	958.0
4983	958.0
4984	958.0
4985	958.0
4986	963.0
4987	967.0
4988	969.0
4989	968.0
4990	967.0
4991	966.0
4992	969.0
4993	972.0
4994	975.0
4995	976.0
4996	976.0
4997	976.0
4998	977.0
4999	979.0
5000	980.0
5001	978.0
5002	976.0
5003	973.0
5004	973.0
5005	976.0
5006	976.0
5007	974.0
5008	970.0
5009	970.0
5010	976.0
5011	978.0
5012	979.0
5013	971.0
5014	965.0
5015	963.0
5016	959.0
5017	961.0
5018	959.0
5019	958.0
5020	955.0
5021	952.0
5022	951.0
5023	953.0
5024	955.0
5025	956.0
5026	957.0
5027	952.0
5028	953.0
5029	955.0
5030	957.0
5031	953.0
5032	954.0
5033	949.0
5034	949.0
5035	951.0
5036	951.0
5037	954.0
5038	950.0
5039	948.0
5040	951.0
5041	950.0
5042	953.0
5043	950.0
5044	948.0
5045	947.0
5046	947.0
5047	944.0
5048	938.0
5049	931.0
5050	927.0
5051	920.0
5052	913.0
5053	919.0
5054	937.0
5055	963.0
5056	993.0
5057	1026.0
5058	1076.0
5059	1131.0
5060	1176.0
5061	1202.0
5062	1205.0
5063	1165.0
5064	1096.0
5065	1018.0
5066	960.0
5067	933.0
5068	929.0
5069	936.0
5070	945.0
5071	948.0
5072	948.0
5073	947.0
5074	945.0
5075	944.0
5076	943.0
5077	945.0
5078	942.0
5079	946.0
5080	945.0
5081	943.0
5082	943.0
5083	945.0
5084	947.0
5085	947.0
5086	943.0
5087	943.0
5088	944.0
5089	947.0
5090	948.0
5091	947.0
5092	943.0
5093	942.0
5094	944.0
5095	945.0
5096	947.0
5097	945.0
5098	942.0
5099	943.0
5100	943.0
5101	945.0
5102	946.0
5103	945.0
5104	945.0
5105	943.0
5106	942.0
5107	944.0
5108	947.0
5109	945.0
5110	944.0
5111	945.0
5112	947.0
5113	947.0
5114	949.0
5115	949.0
5116	948.0
5117	945.0
5118	947.0
5119	946.0
5120	947.0
5121	948.0
5122	946.0
5123	944.0
5124	944.0
5125	946.0
5126	951.0
5127	949.0
5128	947.0
5129	944.0
5130	944.0
5131	946.0
5132	948.0
5133	949.0
5134	947.0
5135	945.0
5136	948.0
5137	950.0
5138	951.0
5139	951.0
5140	949.0
5141	947.0
5142	949.0
5143	949.0
5144	951.0
5145	950.0
5146	949.0
5147	944.0
5148	945.0
5149	943.0
5150	950.0
5151	947.0
5152	944.0
5153	942.0
5154	944.0
5155	945.0
5156	949.0
5157	948.0
5158	947.0
5159	943.0
5160	947.0
5161	949.0
5162	950.0
5163	951.0
5164	951.0
5165	954.0
5166	953.0
5167	960.0
5168	962.0
5169	962.0
5170	963.0
5171	962.0
5172	966.0
5173	968.0
5174	968.0
5175	970.0
5176	968.0
5177	967.0
5178	968.0
5179	967.0
5180	971.0
5181	970.0
5182	969.0
5183	966.0
5184	966.0
5185	969.0
5186	969.0
5187	970.0
5188	969.0
5189	966.0
5190	967.0
5191	967.0
5192	972.0
5193	972.0
5194	969.0
5195	967.0
5196	969.0
5197	971.0
5198	970.0
5199	968.0
5200	966.0
5201	965.0
5202	964.0
5203	968.0
5204	968.0
5205	969.0
5206	966.0
5207	964.0
5208	963.0
5209	967.0
5210	967.0
5211	967.0
5212	965.0
5213	964.0
5214	964.0
5215	965.0
5216	968.0
5217	965.0
5218	966.0
5219	963.0
5220	963.0
5221	964.0
5222	967.0
5223	967.0
5224	962.0
5225	961.0
5226	963.0
5227	963.0
5228	965.0
5229	964.0
5230	960.0
5231	957.0
5232	960.0
5233	960.0
5234	962.0
5235	961.0
5236	962.0
5237	958.0
5238	960.0
5239	962.0
5240	963.0
5241	963.0
5242	961.0
5243	961.0
5244	961.0
5245	963.0
5246	963.0
5247	964.0
5248	962.0
5249	962.0
5250	962.0
5251	962.0
5252	965.0
5253	964.0
5254	959.0
5255	959.0
5256	958.0
5257	960.0
5258	962.0
5259	963.0
5260	961.0
5261	958.0
5262	960.0
5263	962.0
5264	963.0
5265	964.0
5266	965.0
5267	960.0
5268	962.0
5269	964.0
5270	969.0
5271	970.0
5272	972.0
5273	974.0
5274	977.0
5275	978.0
5276	979.0
5277	978.0
5278	978.0
5279	976.0
5280	978.0
5281	979.0
5282	983.0
5283	983.0
5284	984.0
5285	982.0
5286	985.0
5287	984.0
5288	986.0
5289	984.0
5290	982.0
5291	979.0
5292	979.0
5293	980.0
5294	980.0
5295	980.0
5296	978.0
5297	974.0
5298	975.0
5299	978.0
5300	983.0
5301	987.0
5302	985.0
5303	979.0
5304	974.0
5305	973.0
5306	971.0
5307	969.0
5308	963.0
5309	960.0
5310	959.0
5311	959.0
5312	958.0
5313	958.0
5314	959.0
5315	957.0
5316	956.0
5317	957.0
5318	960.0
5319	957.0
5320	955.0
5321	953.0
5322	954.0
5323	953.0
5324	954.0
5325	955.0
5326	956.0
5327	953.0
5328	954.0
5329	956.0
5330	956.0
5331	956.0
5332	953.0
5333	944.0
5334	937.0
5335	933.0
5336	930.0
5337	924.0
5338	916.0
5339	915.0
5340	931.0
5341	953.0
5342	982.0
5343	1017.0
5344	1061.0
5345	1111.0
5346	1159.0
5347	1188.0
5348	1189.0
5349	1152.0
5350	1088.0
5351	1010.0
5352	956.0
5353	935.0
5354	935.0
5355	942.0
5356	948.0
5357	949.0
5358	949.0
5359	950.0
5360	951.0
5361	952.0
5362	950.0
5363	949.0
5364	950.0
5365	952.0
5366	954.0
5367	953.0
5368	951.0
5369	948.0
5370	948.0
5371	950.0
5372	951.0
5373	951.0
5374	948.0
5375	947.0
5376	946.0
5377	948.0
5378	949.0
5379	949.0
5380	948.0
5381	946.0
5382	948.0
5383	949.0
5384	950.0
5385	951.0
5386	949.0
5387	947.0
5388	951.0
5389	952.0
5390	954.0
5391	953.0
5392	953.0
5393	950.0
5394	951.0
5395	954.0
5396	952.0
5397	951.0
5398	951.0
5399	949.0
5400	949.0
5401	953.0
5402	953.0
5403	950.0
5404	949.0
5405	948.0
5406	947.0
5407	950.0
5408	950.0
5409	952.0
5410	950.0
5411	949.0
5412	951.0
5413	953.0
5414	955.0
5415	952.0
5416	953.0
5417	951.0
5418	952.0
5419	955.0
5420	957.0
5421	957.0
5422	953.0
5423	953.0
5424	954.0
5425	956.0
5426	954.0
5427	954.0
5428	953.0
5429	951.0
5430	952.0
5431	951.0
5432	951.0
5433	951.0
5434	950.0
5435	949.0
5436	948.0
5437	951.0
5438	954.0
5439	952.0
5440	951.0
5441	948.0
5442	949.0
5443	950.0
5444	952.0
5445	951.0
5446	949.0
5447	948.0
5448	949.0
5449	952.0
5450	953.0
5451	953.0
5452	953.0
5453	954.0
5454	954.0
5455	956.0
5456	958.0
5457	959.0
5458	957.0
5459	957.0
5460	958.0
5461	962.0
5462	964.0
5463	965.0
5464	963.0
5465	962.0
5466	967.0
5467	967.0
5468	971.0
5469	970.0
5470	967.0
5471	966.0
5472	969.0
5473	970.0
5474	973.0
5475	971.0
5476	971.0
5477	969.0
5478	970.0
5479	972.0
5480	974.0
5481	972.0
5482	970.0
5483	968.0
5484	966.0
5485	966.0
5486	968.0
5487	968.0
5488	966.0
5489	963.0
5490	964.0
5491	964.0
5492	965.0
5493	964.0
5494	966.0
5495	964.0
5496	962.0
5497	962.0
5498	965.0
5499	965.0
5500	964.0
5501	960.0
5502	961.0
5503	961.0
5504	964.0
5505	962.0
5506	963.0
5507	961.0
5508	963.0
5509	963.0
5510	963.0
5511	964.0
5512	963.0
5513	962.0
5514	961.0
5515	961.0
5516	961.0
5517	960.0
5518	957.0
5519	955.0
5520	957.0
5521	962.0
5522	959.0
5523	960.0
5524	958.0
5525	959.0
5526	959.0
5527	960.0
5528	960.0
5529	961.0
5530	959.0
5531	955.0
5532	957.0
5533	959.0
5534	959.0
5535	958.0
5536	957.0
5537	956.0
5538	957.0
5539	959.0
5540	960.0
5541	961.0
5542	957.0
5543	955.0
5544	957.0
5545	959.0
5546	959.0
5547	960.0
5548	959.0
5549	957.0
5550	960.0
5551	960.0
5552	962.0
5553	962.0
5554	960.0
5555	958.0
5556	956.0
5557	959.0
5558	963.0
5559	963.0
5560	966.0
5561	966.0
5562	970.0
5563	971.0
5564	971.0
5565	972.0
5566	972.0
5567	970.0
5568	969.0
5569	972.0
5570	975.0
5571	977.0
5572	978.0
5573	975.0
5574	976.0
5575	978.0
5576	976.0
5577	979.0
5578	976.0
5579	975.0
5580	976.0
5581	980.0
5582	980.0
5583	978.0
5584	975.0
5585	973.0
5586	976.0
5587	981.0
5588	979.0
5589	973.0
5590	967.0
5591	962.0
5592	962.0
5593	958.0
5594	957.0
5595	954.0
5596	954.0
5597	952.0
5598	953.0
5599	956.0
5600	956.0
5601	957.0
5602	954.0
5603	952.0
5604	952.0
5605	955.0
5606	955.0
5607	954.0
5608	954.0
5609	952.0
5610	954.0
5611	954.0
5612	955.0
5613	953.0
5614	953.0
5615	950.0
5616	949.0
5617	946.0
5618	939.0
5619	933.0
5620	929.0
5621	924.0
5622	916.0
5623	910.0
5624	922.0
5625	941.0
5626	957.0
5627	972.0
5628	994.0
5629	1023.0
5630	1065.0
5631	1118.0
5632	1160.0
5633	1189.0
5634	1209.0
5635	1218.0
5636	1201.0
5637	1162.0
5638	1107.0
5639	1045.0
5640	994.0
5641	955.0
5642	937.0
5643	931.0
5644	933.0
5645	939.0
5646	941.0
5647	945.0
5648	949.0
5649	950.0
5650	945.0
5651	944.0
5652	944.0
5653	942.0
5654	944.0
5655	943.0
5656	944.0
5657	943.0
5658	945.0
5659	946.0
5660	948.0
5661	947.0
5662	943.0
5663	940.0
5664	943.0
5665	944.0
5666	946.0
5667	948.0
5668	945.0
5669	945.0
5670	944.0
5671	946.0
5672	942.0
5673	943.0
5674	942.0
5675	942.0
5676	945.0
5677	947.0
5678	945.0
5679	943.0
5680	940.0
5681	937.0
5682	941.0
5683	943.0
5684	942.0
5685	944.0
5686	942.0
5687	941.0
5688	942.0
5689	944.0
5690	943.0
5691	946.0
5692	946.0
5693	944.0
5694	946.0
5695	946.0
5696	946.0
5697	945.0
5698	940.0
5699	940.0
5700	941.0
5701	942.0
5702	945.0
5703	945.0
5704	944.0
5705	941.0
5706	941.0
5707	944.0
5708	944.0
5709	947.0
5710	946.0
5711	942.0
5712	945.0
5713	946.0
5714	948.0
5715	949.0
5716	946.0
5717	943.0
5718	940.0
5719	941.0
5720	941.0
5721	941.0
5722	937.0
5723	931.0
5724	933.0
5725	931.0
5726	932.0
5727	935.0
5728	933.0
5729	931.0
5730	929.0
5731	933.0
5732	932.0
5733	934.0
5734	933.0
5735	930.0
5736	933.0
5737	936.0
5738	940.0
5739	941.0
5740	940.0
5741	942.0
5742	942.0
5743	950.0
5744	952.0
5745	954.0
5746	954.0
5747	955.0
5748	957.0
5749	960.0
5750	964.0
5751	960.0
5752	961.0
5753	956.0
5754	959.0
5755	964.0
5756	964.0
5757	964.0
5758	962.0
5759	958.0
5760	962.0
5761	963.0
5762	964.0
5763	963.0
5764	961.0
5765	958.0
5766	962.0
5767	963.0
5768	962.0
5769	963.0
5770	962.0
5771	962.0
5772	962.0
5773	964.0
5774	963.0
5775	962.0
5776	962.0
5777	960.0
5778	961.0
5779	958.0
5780	961.0
5781	960.0
5782	956.0
5783	956.0
5784	957.0
5785	958.0
5786	960.0
5787	960.0
5788	959.0
5789	954.0
5790	956.0
5791	957.0
5792	957.0
5793	955.0
5794	954.0
5795	952.0
5796	952.0
5797	955.0
5798	957.0
5799	957.0
5800	957.0
5801	955.0
5802	957.0
5803	957.0
5804	958.0
5805	957.0
5806	957.0
5807	954.0
5808	955.0
5809	953.0
5810	955.0
5811	955.0
5812	953.0
5813	951.0
5814	952.0
5815	953.0
5816	955.0
5817	955.0
5818	955.0
5819	952.0
5820	955.0
5821	956.0
5822	957.0
5823	956.0
5824	955.0
5825	950.0
5826	950.0
5827	952.0
5828	956.0
5829	954.0
5830	951.0
5831	953.0
5832	954.0
5833	956.0
5834	956.0
5835	953.0
5836	953.0
5837	954.0
5838	954.0
5839	957.0
5840	956.0
5841	956.0
5842	958.0
5843	954.0
5844	961.0
5845	964.0
5846	966.0
5847	969.0
5848	968.0
5849	967.0
5850	969.0
5851	970.0
5852	973.0
5853	976.0
5854	974.0
5855	973.0
5856	976.0
5857	979.0
5858	979.0
5859	976.0
5860	973.0
5861	972.0
5862	969.0
5863	972.0
5864	975.0
5865	973.0
5866	971.0
5867	968.0
5868	970.0
5869	974.0
5870	977.0
5871	978.0
5872	975.0
5873	970.0
5874	968.0
5875	968.0
5876	966.0
5877	961.0
5878	957.0
5879	953.0
5880	953.0
5881	953.0
5882	952.0
5883	952.0
5884	949.0
5885	948.0
5886	952.0
5887	953.0
5888	954.0
5889	955.0
5890	950.0
5891	950.0
5892	953.0
5893	953.0
5894	954.0
5895	955.0
5896	953.0
5897	953.0
5898	952.0
5899	953.0
5900	953.0
5901	953.0
5902	952.0
5903	949.0
5904	950.0
5905	946.0
5906	939.0
5907	931.0
5908	926.0
5909	919.0
5910	912.0
5911	912.0
5912	925.0
5913	952.0
5914	980.0
5915	1015.0
5916	1062.0
5917	1119.0
5918	1169.0
5919	1203.0
5920	1203.0
5921	1166.0
5922	1094.0
5923	1013.0
5924	954.0
5925	928.0
5926	926.0
5927	931.0
5928	941.0
5929	943.0
5930	945.0
5931	943.0
5932	940.0
5933	945.0
5934	941.0
5935	944.0
5936	946.0
5937	947.0
5938	945.0
5939	943.0
5940	945.0
5941	944.0
5942	946.0
5943	946.0
5944	944.0
5945	941.0
5946	943.0
5947	946.0
5948	948.0
5949	948.0
5950	943.0
5951	946.0
5952	944.0
5953	946.0
5954	948.0
5955	948.0
5956	943.0
5957	944.0
5958	942.0
5959	944.0
5960	945.0
5961	944.0
5962	944.0
5963	943.0
5964	946.0
5965	948.0
5966	947.0
5967	947.0
5968	946.0
5969	943.0
5970	944.0
5971	944.0
5972	946.0
5973	946.0
5974	942.0
5975	942.0
5976	943.0
5977	944.0
5978	942.0
5979	943.0
5980	942.0
5981	941.0
5982	942.0
5983	943.0
5984	945.0
5985	943.0
5986	944.0
5987	944.0
5988	945.0
5989	943.0
5990	948.0
5991	947.0
5992	946.0
5993	942.0
5994	945.0
5995	946.0
5996	948.0
5997	947.0
5998	943.0
5999	943.0
6000	943.0
6001	944.0
6002	942.0
6003	942.0
6004	941.0
6005	937.0
6006	938.0
6007	941.0
6008	940.0
6009	940.0
6010	936.0
6011	936.0
6012	937.0
6013	937.0
6014	937.0
6015	938.0
6016	935.0
6017	935.0
6018	940.0
6019	939.0
6020	942.0
6021	943.0
6022	944.0
6023	942.0
6024	948.0
6025	950.0
6026	954.0
6027	956.0
6028	953.0
6029	955.0
6030	956.0
6031	961.0
6032	960.0
6033	964.0
6034	964.0
6035	961.0
6036	963.0
6037	964.0
6038	968.0
6039	966.0
6040	966.0
6041	964.0
6042	965.0
6043	965.0
6044	968.0
6045	967.0
6046	966.0
6047	965.0
6048	967.0
6049	968.0
6050	969.0
6051	971.0
6052	968.0
6053	965.0
6054	968.0
6055	968.0
6056	969.0
6057	966.0
6058	965.0
6059	962.0
6060	966.0
6061	966.0
6062	969.0
6063	970.0
6064	965.0
6065	961.0
6066	962.0
6067	964.0
6068	965.0
6069	966.0
6070	964.0
6071	961.0
6072	963.0
6073	964.0
6074	966.0
6075	962.0
6076	961.0
6077	958.0
6078	962.0
6079	963.0
6080	965.0
6081	965.0
6082	963.0
6083	959.0
6084	961.0
6085	961.0
6086	962.0
6087	964.0
6088	961.0
6089	957.0
6090	959.0
6091	959.0
6092	961.0
6093	962.0
6094	960.0
6095	957.0
6096	959.0
6097	962.0
6098	963.0
6099	963.0
6100	960.0
6101	959.0
6102	961.0
6103	962.0
6104	964.0
6105	961.0
6106	959.0
6107	960.0
6108	960.0
6109	960.0
6110	962.0
6111	962.0
6112	962.0
6113	961.0
6114	963.0
6115	967.0
6116	965.0
6117	963.0
6118	962.0
6119	961.0
6120	964.0
6121	961.0
6122	963.0
6123	963.0
6124	959.0
6125	959.0
6126	961.0
6127	964.0
6128	965.0
6129	962.0
6130	961.0
6131	960.0
6132	961.0
6133	962.0
6134	965.0
6135	967.0
6136	970.0
6137	974.0
6138	975.0
6139	978.0
6140	980.0
6141	979.0
6142	977.0
6143	978.0
6144	980.0
6145	983.0
6146	986.0
6147	986.0
6148	986.0
6149	983.0
6150	983.0
6151	983.0
6152	982.0
6153	981.0
6154	979.0
6155	978.0
6156	979.0
6157	980.0
6158	980.0
6159	976.0
6160	976.0
6161	978.0
6162	983.0
6163	985.0
6164	985.0
6165	980.0
6166	975.0
6167	969.0
6168	972.0
6169	969.0
6170	967.0
6171	964.0
6172	964.0
6173	962.0
6174	962.0
6175	960.0
6176	960.0
6177	959.0
6178	957.0
6179	955.0
6180	957.0
6181	957.0
6182	958.0
6183	957.0
6184	955.0
6185	952.0
6186	955.0
6187	957.0
6188	955.0
6189	955.0
6190	953.0
6191	952.0
6192	953.0
6193	956.0
6194	956.0
6195	954.0
6196	954.0
6197	953.0
6198	953.0
6199	953.0
6200	950.0
6201	939.0
6202	931.0
6203	928.0
6204	924.0
6205	918.0
6206	917.0
6207	927.0
6208	945.0
6209	973.0
6210	1005.0
6211	1043.0
6212	1094.0
6213	1150.0
6214	1193.0
6215	1215.0
6216	1219.0
6217	1189.0
6218	1120.0
6219	1035.0
6220	970.0
6221	933.0
6222	927.0
6223	936.0
6224	943.0
6225	949.0
6226	949.0
6227	946.0
6228	948.0
6229	952.0
6230	953.0
6231	955.0
6232	951.0
6233	949.0
6234	950.0
6235	950.0
6236	953.0
6237	950.0
6238	949.0
6239	948.0
6240	947.0
6241	948.0
6242	948.0
6243	948.0
6244	947.0
6245	945.0
6246	945.0
6247	946.0
6248	947.0
6249	948.0
6250	948.0
6251	945.0
6252	946.0
6253	948.0
6254	950.0
6255	949.0
6256	947.0
6257	948.0
6258	949.0
6259	951.0
6260	952.0
6261	951.0
6262	951.0
6263	947.0
6264	950.0
6265	951.0
6266	953.0
6267	947.0
6268	945.0
6269	945.0
6270	947.0
6271	950.0
6272	948.0
6273	950.0
6274	949.0
6275	946.0
6276	947.0
6277	948.0
6278	950.0
6279	950.0
6280	947.0
6281	947.0
6282	948.0
6283	947.0
6284	950.0
6285	949.0
6286	949.0
6287	948.0
6288	948.0
6289	953.0
6290	952.0
6291	951.0
6292	950.0
6293	948.0
6294	950.0
6295	949.0
6296	952.0
6297	950.0
6298	948.0
6299	947.0
6300	949.0
6301	949.0
6302	950.0
6303	950.0
6304	947.0
6305	944.0
6306	945.0
6307	947.0
6308	945.0
6309	948.0
6310	944.0
6311	944.0
6312	944.0
6313	946.0
6314	946.0
6315	947.0
6316	944.0
6317	944.0
6318	947.0
6319	948.0
6320	948.0
6321	947.0
6322	947.0
6323	943.0
6324	945.0
6325	948.0
6326	950.0
6327	950.0
6328	948.0
6329	951.0
6330	953.0
6331	957.0
6332	959.0
6333	960.0
6334	960.0
6335	958.0
6336	961.0
6337	964.0
6338	965.0
6339	967.0
6340	965.0
6341	966.0
6342	967.0
6343	970.0
6344	972.0
6345	971.0
6346	969.0
6347	968.0
6348	969.0
6349	970.0
6350	970.0
6351	972.0
6352	970.0
6353	968.0
6354	967.0
6355	969.0
6356	971.0
6357	970.0
6358	967.0
6359	967.0
6360	967.0
6361	969.0
6362	968.0
6363	969.0
6364	967.0
6365	965.0
6366	965.0
6367	967.0
6368	968.0
6369	970.0
6370	967.0
6371	969.0
6372	966.0
6373	967.0
6374	968.0
6375	966.0
6376	964.0
6377	962.0
6378	962.0
6379	962.0
6380	964.0
6381	964.0
6382	961.0
6383	959.0
6384	961.0
6385	963.0
6386	962.0
6387	962.0
6388	961.0
6389	958.0
6390	959.0
6391	960.0
6392	960.0
6393	961.0
6394	959.0
6395	958.0
6396	957.0
6397	959.0
6398	960.0
6399	960.0
6400	961.0
6401	960.0
6402	962.0
6403	962.0
6404	964.0
6405	963.0
6406	960.0
6407	956.0
6408	957.0
6409	958.0
6410	960.0
6411	958.0
6412	958.0
6413	957.0
6414	956.0
6415	957.0
6416	959.0
6417	956.0
6418	955.0
6419	956.0
6420	956.0
6421	959.0
6422	956.0
6423	957.0
6424	956.0
6425	954.0
6426	956.0
6427	958.0
6428	958.0
6429	959.0
6430	957.0
6431	956.0
6432	957.0
6433	961.0
6434	961.0
6435	962.0
6436	960.0
6437	958.0
6438	960.0
6439	963.0
6440	962.0
6441	963.0
6442	965.0
6443	960.0
6444	963.0
6445	966.0
6446	967.0
6447	967.0
6448	967.0
6449	967.0
6450	971.0
6451	974.0
6452	974.0
6453	974.0
6454	974.0
6455	974.0
6456	974.0
6457	978.0
6458	981.0
6459	979.0
6460	979.0
6461	978.0
6462	978.0
6463	979.0
6464	981.0
6465	981.0
6466	978.0
6467	974.0
6468	976.0
6469	978.0
6470	978.0
6471	976.0
6472	974.0
6473	973.0
6474	980.0
6475	984.0
6476	984.0
6477	979.0
6478	971.0
6479	966.0
6480	966.0
6481	964.0
6482	962.0
6483	959.0
6484	957.0
6485	956.0
6486	954.0
6487	956.0
6488	956.0
6489	955.0
6490	958.0
6491	954.0
6492	955.0
6493	955.0
6494	956.0
6495	954.0
6496	953.0
6497	953.0
6498	953.0
6499	955.0
6500	956.0
6501	956.0
6502	953.0
6503	952.0
6504	952.0
6505	953.0
6506	955.0
6507	955.0
6508	952.0
6509	950.0
6510	949.0
6511	950.0
6512	948.0
6513	940.0
6514	931.0
6515	927.0
6516	921.0
6517	915.0
6518	909.0
6519	915.0
6520	934.0
6521	959.0
6522	985.0
6523	1015.0
6524	1057.0
6525	1109.0
6526	1155.0
6527	1186.0
6528	1199.0
6529	1187.0
6530	1142.0
6531	1068.0
6532	994.0
6533	948.0
6534	930.0
6535	931.0
6536	939.0
6537	947.0
6538	949.0
6539	945.0
6540	947.0
6541	949.0
6542	953.0
6543	950.0
6544	952.0
6545	951.0
6546	950.0
6547	950.0
6548	952.0
6549	951.0
6550	949.0
6551	948.0
6552	950.0
6553	950.0
6554	950.0
6555	948.0
6556	947.0
6557	945.0
6558	946.0
6559	948.0
6560	949.0
6561	949.0
6562	945.0
6563	944.0
6564	945.0
6565	950.0
6566	950.0
6567	950.0
6568	951.0
6569	946.0
6570	947.0
6571	949.0
6572	952.0
6573	948.0
6574	946.0
6575	946.0
6576	947.0
6577	949.0
6578	949.0
6579	949.0
6580	948.0
6581	946.0
6582	948.0
6583	951.0
6584	948.0
6585	948.0
6586	947.0
6587	946.0
6588	946.0
6589	948.0
6590	948.0
6591	947.0
6592	945.0
6593	944.0
6594	947.0
6595	948.0
6596	952.0
6597	950.0
6598	949.0
6599	950.0
6600	947.0
6601	950.0
6602	951.0
6603	952.0
6604	951.0
6605	949.0
6606	948.0
6607	951.0
6608	950.0
6609	952.0
6610	950.0
6611	945.0
6612	947.0
6613	947.0
6614	946.0
6615	946.0
6616	946.0
6617	942.0
6618	946.0
6619	948.0
6620	946.0
6621	948.0
6622	945.0
6623	943.0
6624	943.0
6625	945.0
6626	946.0
6627	946.0
6628	942.0
6629	941.0
6630	946.0
6631	948.0
6632	946.0
6633	947.0
6634	946.0
6635	946.0
6636	948.0
6637	952.0
6638	953.0
6639	955.0
6640	956.0
6641	955.0
6642	958.0
6643	960.0
6644	961.0
6645	964.0
6646	963.0
6647	960.0
6648	964.0
6649	969.0
6650	969.0
6651	969.0
6652	969.0
6653	968.0
6654	967.0
6655	969.0
6656	969.0
6657	968.0
6658	965.0
6659	963.0
6660	963.0
6661	964.0
6662	966.0
6663	967.0
6664	965.0
6665	962.0
6666	964.0
6667	964.0
6668	965.0
6669	964.0
6670	963.0
6671	962.0
6672	961.0
6673	963.0
6674	962.0
6675	962.0
6676	961.0
6677	960.0
6678	963.0
6679	966.0
6680	967.0
6681	965.0
6682	964.0
6683	961.0
6684	962.0
6685	961.0
6686	960.0
6687	960.0
6688	958.0
6689	956.0
6690	960.0
6691	962.0
6692	960.0
6693	960.0
6694	958.0
6695	955.0
6696	956.0
6697	958.0
6698	958.0
6699	960.0
6700	958.0
6701	959.0
6702	959.0
6703	960.0
6704	961.0
6705	960.0
6706	958.0
6707	955.0
6708	960.0
6709	961.0
6710	961.0
6711	960.0
6712	959.0
6713	957.0
6714	956.0
6715	958.0
6716	959.0
6717	961.0
6718	957.0
6719	955.0
6720	956.0
6721	959.0
6722	960.0
6723	958.0
6724	955.0
6725	956.0
6726	958.0
6727	956.0
6728	959.0
6729	961.0
6730	962.0
6731	959.0
6732	961.0
6733	958.0
6734	961.0
6735	960.0
6736	959.0
6737	958.0
6738	958.0
6739	961.0
6740	962.0
6741	963.0
6742	962.0
6743	962.0
6744	964.0
6745	967.0
6746	969.0
6747	970.0
6748	970.0
6749	968.0
6750	971.0
6751	973.0
6752	974.0
6753	975.0
6754	974.0
6755	975.0
6756	979.0
6757	981.0
6758	980.0
6759	980.0
6760	978.0
6761	977.0
6762	976.0
6763	976.0
6764	978.0
6765	979.0
6766	976.0
6767	970.0
6768	974.0
6769	973.0
6770	977.0
6771	979.0
6772	981.0
6773	976.0
6774	972.0
6775	969.0
6776	967.0
6777	961.0
6778	960.0
6779	955.0
6780	954.0
6781	954.0
6782	952.0
6783	951.0
6784	953.0
6785	952.0
6786	952.0
6787	952.0
6788	954.0
6789	955.0
6790	953.0
6791	949.0
6792	951.0
6793	954.0
6794	955.0
6795	956.0
6796	957.0
6797	953.0
6798	951.0
6799	954.0
6800	955.0
6801	955.0
6802	953.0
6803	950.0
6804	950.0
6805	951.0
6806	952.0
6807	947.0
6808	941.0
6809	933.0
6810	931.0
6811	932.0
6812	929.0
6813	925.0
6814	913.0
6815	907.0
6816	914.0
6817	932.0
6818	955.0
6819	983.0
6820	1016.0
6821	1062.0
6822	1115.0
6823	1160.0
6824	1192.0
6825	1200.0
6826	1169.0
6827	1104.0
6828	1024.0
6829	968.0
6830	937.0
6831	922.0
6832	927.0
6833	932.0
6834	938.0
6835	943.0
6836	942.0
6837	942.0
6838	941.0
6839	943.0
6840	941.0
6841	945.0
6842	946.0
6843	945.0
6844	943.0
6845	942.0
6846	942.0
6847	945.0
6848	946.0
6849	944.0
6850	944.0
6851	945.0
6852	944.0
6853	947.0
6854	947.0
6855	945.0
6856	942.0
6857	940.0
6858	942.0
6859	944.0
6860	946.0
6861	942.0
6862	941.0
6863	939.0
6864	939.0
6865	943.0
6866	944.0
6867	939.0
6868	941.0
6869	941.0
6870	942.0
6871	943.0
6872	944.0
6873	942.0
6874	943.0
6875	941.0
6876	942.0
6877	944.0
6878	945.0
6879	944.0
6880	943.0
6881	943.0
6882	941.0
6883	943.0
6884	944.0
6885	943.0
6886	942.0
6887	940.0
6888	941.0
6889	944.0
6890	945.0
6891	944.0
6892	941.0
6893	940.0
6894	942.0
6895	944.0
6896	945.0
6897	944.0
6898	941.0
6899	942.0
6900	941.0
6901	941.0
6902	943.0
6903	942.0
6904	940.0
6905	936.0
6906	938.0
6907	938.0
6908	939.0
6909	937.0
6910	937.0
6911	936.0
6912	934.0
6913	934.0
6914	934.0
6915	931.0
6916	930.0
6917	927.0
6918	931.0
6919	933.0
6920	934.0
6921	934.0
6922	930.0
6923	927.0
6924	932.0
6925	935.0
6926	937.0
6927	939.0
6928	938.0
6929	938.0
6930	941.0
6931	947.0
6932	951.0
6933	949.0
6934	952.0
6935	952.0
6936	954.0
6937	957.0
6938	957.0
6939	959.0
6940	957.0
6941	957.0
6942	957.0
6943	962.0
6944	962.0
6945	961.0
6946	961.0
6947	960.0
6948	961.0
6949	965.0
6950	965.0
6951	964.0
6952	963.0
6953	958.0
6954	959.0
6955	961.0
6956	959.0
6957	960.0
6958	958.0
6959	957.0
6960	957.0
6961	958.0
6962	963.0
6963	959.0
6964	959.0
6965	959.0
6966	959.0
6967	962.0
6968	963.0
6969	961.0
6970	959.0
6971	958.0
6972	959.0
6973	959.0
6974	956.0
6975	956.0
6976	956.0
6977	955.0
6978	956.0
6979	959.0
6980	958.0
6981	960.0
6982	959.0
6983	956.0
6984	956.0
6985	957.0
6986	956.0
6987	954.0
6988	953.0
6989	952.0
6990	954.0
6991	955.0
6992	955.0
6993	952.0
6994	953.0
6995	950.0
6996	951.0
6997	954.0
6998	952.0
6999	954.0
7000	952.0
7001	950.0
7002	952.0
7003	953.0
7004	955.0
7005	955.0
7006	954.0
7007	954.0
7008	955.0
7009	957.0
7010	958.0
7011	956.0
7012	955.0
7013	954.0
7014	955.0
7015	955.0
7016	956.0
7017	956.0
7018	955.0
7019	952.0
7020	954.0
7021	955.0
7022	957.0
7023	955.0
7024	955.0
7025	953.0
7026	955.0
7027	957.0
7028	959.0
7029	960.0
7030	963.0
7031	963.0
7032	964.0
7033	967.0
7034	968.0
7035	971.0
7036	969.0
7037	970.0
7038	975.0
7039	976.0
7040	978.0
7041	977.0
7042	978.0
7043	975.0
7044	975.0
7045	976.0
7046	974.0
7047	973.0
7048	973.0
7049	970.0
7050	971.0
7051	971.0
7052	971.0
7053	973.0
7054	974.0
7055	977.0
7056	978.0
7057	974.0
7058	972.0
7059	968.0
7060	963.0
7061	956.0
7062	958.0
7063	957.0
7064	958.0
7065	955.0
7066	954.0
7067	952.0
7068	952.0
7069	952.0
7070	951.0
7071	951.0
7072	953.0
7073	951.0
7074	952.0
7075	952.0
7076	952.0
7077	953.0
7078	949.0
7079	949.0
7080	951.0
7081	952.0
7082	950.0
7083	952.0
7084	948.0
7085	946.0
7086	947.0
7087	947.0
7088	951.0
7089	949.0
7090	949.0
7091	944.0
7092	945.0
7093	938.0
7094	932.0
7095	928.0
7096	922.0
7097	910.0
7098	907.0
7099	921.0
7100	947.0
7101	976.0
7102	1007.0
7103	1049.0
7104	1105.0
7105	1159.0
7106	1197.0
7107	1211.0
7108	1192.0
7109	1135.0
7110	1052.0
7111	984.0
7112	943.0
7113	927.0
7114	927.0
7115	934.0
7116	947.0
7117	947.0
7118	947.0
7119	946.0
7120	947.0
7121	945.0
7122	946.0
7123	947.0
7124	947.0
7125	946.0
7126	945.0
7127	946.0
7128	946.0
7129	945.0
7130	948.0
7131	947.0
7132	946.0
7133	943.0
7134	944.0
7135	945.0
7136	946.0
7137	946.0
7138	946.0
7139	943.0
7140	949.0
7141	946.0
7142	948.0
7143	946.0
7144	947.0
7145	946.0
7146	947.0
7147	950.0
7148	951.0
7149	951.0
7150	948.0
7151	946.0
7152	946.0
7153	947.0
7154	949.0
7155	948.0
7156	946.0
7157	946.0
7158	945.0
7159	949.0
7160	947.0
7161	947.0
7162	944.0
7163	946.0
7164	947.0
7165	947.0
7166	949.0
7167	948.0
7168	945.0
7169	943.0
7170	947.0
7171	948.0
7172	949.0
7173	948.0
7174	948.0
7175	946.0
7176	946.0
7177	948.0
7178	953.0
7179	953.0
7180	950.0
7181	947.0
7182	949.0
7183	947.0
7184	949.0
7185	946.0
7186	946.0
7187	944.0
7188	944.0
7189	947.0
7190	946.0
7191	946.0
7192	943.0
7193	941.0
7194	943.0
7195	943.0
7196	943.0
7197	942.0
7198	939.0
7199	938.0
7200	940.0
7201	943.0
7202	942.0
7203	942.0
7204	942.0
7205	942.0
7206	944.0
7207	947.0
7208	950.0
7209	949.0
7210	952.0
7211	951.0
7212	953.0
7213	957.0
7214	961.0
7215	961.0
7216	962.0
7217	961.0
7218	965.0
7219	966.0
7220	970.0
7221	967.0
7222	966.0
7223	966.0
7224	968.0
7225	969.0
7226	973.0
7227	970.0
7228	969.0
7229	969.0
7230	968.0
7231	973.0
7232	975.0
7233	972.0
7234	973.0
7235	971.0
7236	972.0
7237	972.0
7238	976.0
7239	974.0
7240	972.0
7241	969.0
7242	971.0
7243	972.0
7244	972.0
7245	967.0
7246	967.0
7247	968.0
7248	967.0
7249	967.0
7250	971.0
7251	968.0
7252	969.0
7253	965.0
7254	965.0
7255	968.0
7256	969.0
7257	968.0
7258	967.0
7259	962.0
7260	963.0
7261	968.0
7262	966.0
7263	967.0
7264	966.0
7265	964.0
7266	962.0
7267	965.0
7268	965.0
7269	966.0
7270	961.0
7271	962.0
7272	962.0
7273	961.0
7274	963.0
7275	962.0
7276	960.0
7277	959.0
7278	962.0
7279	963.0
7280	962.0
7281	963.0
7282	961.0
7283	961.0
7284	963.0
7285	963.0
7286	964.0
7287	964.0
7288	961.0
7289	960.0
7290	963.0
7291	965.0
7292	964.0
7293	963.0
7294	964.0
7295	960.0
7296	962.0
7297	963.0
7298	965.0
7299	964.0
7300	962.0
7301	959.0
7302	961.0
7303	961.0
7304	964.0
7305	964.0
7306	962.0
7307	960.0
7308	961.0
7309	963.0
7310	964.0
7311	964.0
7312	964.0
7313	964.0
7314	967.0
7315	972.0
7316	975.0
7317	976.0
7318	975.0
7319	974.0
7320	976.0
7321	975.0
7322	978.0
7323	980.0
7324	978.0
7325	977.0
7326	978.0
7327	983.0
7328	984.0
7329	985.0
7330	982.0
7331	981.0
7332	983.0
7333	983.0
7334	983.0
7335	982.0
7336	979.0
7337	978.0
7338	979.0
7339	980.0
7340	980.0
7341	981.0
7342	984.0
7343	986.0
7344	986.0
7345	983.0
7346	979.0
7347	974.0
7348	970.0
7349	964.0
7350	963.0
7351	960.0
7352	960.0
7353	959.0
7354	957.0
7355	956.0
7356	957.0
7357	955.0
7358	958.0
7359	958.0
7360	955.0
7361	955.0
7362	954.0
7363	957.0
7364	957.0
7365	957.0
7366	956.0
7367	955.0
7368	956.0
7369	960.0
7370	959.0
7371	959.0
7372	957.0
7373	955.0
7374	954.0
7375	945.0
7376	938.0
7377	932.0
7378	923.0
7379	915.0
7380	909.0
7381	912.0
7382	933.0
7383	958.0
7384	977.0
7385	998.0
7386	1024.0
7387	1056.0
7388	1094.0
7389	1133.0
7390	1164.0
7391	1187.0
7392	1210.0
7393	1231.0
7394	1234.0
7395	1208.0
7396	1138.0
7397	1047.0
7398	975.0
7399	940.0
7400	939.0
7401	946.0
7402	953.0
7403	952.0
7404	951.0
7405	953.0
7406	954.0
7407	952.0
7408	951.0
7409	946.0
7410	947.0
7411	949.0
7412	950.0
7413	950.0
7414	948.0
7415	945.0
7416	947.0
7417	949.0
7418	951.0
7419	950.0
7420	947.0
7421	944.0
7422	947.0
7423	947.0
7424	950.0
7425	949.0
7426	947.0
7427	945.0
7428	946.0
7429	950.0
7430	952.0
7431	952.0
7432	951.0
7433	950.0
7434	950.0
7435	951.0
7436	953.0
7437	952.0
7438	950.0
7439	948.0
7440	948.0
7441	951.0
7442	950.0
7443	951.0
7444	948.0
7445	946.0
7446	948.0
7447	948.0
7448	951.0
7449	951.0
7450	949.0
7451	947.0
7452	947.0
7453	949.0
7454	952.0
7455	953.0
7456	950.0
7457	949.0
7458	950.0
7459	950.0
7460	953.0
7461	951.0
7462	952.0
7463	947.0
7464	947.0
7465	948.0
7466	952.0
7467	951.0
7468	949.0
7469	948.0
7470	950.0
7471	950.0
7472	950.0
7473	952.0
7474	947.0
7475	945.0
7476	948.0
7477	949.0
7478	951.0
7479	949.0
7480	947.0
7481	946.0
7482	949.0
7483	950.0
7484	950.0
7485	950.0
7486	950.0
7487	947.0
7488	948.0
7489	947.0
7490	950.0
7491	950.0
7492	950.0
7493	948.0
7494	950.0
7495	955.0
7496	956.0
7497	959.0
7498	957.0
7499	959.0
7500	963.0
7501	965.0
7502	965.0
7503	964.0
7504	964.0
7505	963.0
7506	965.0
7507	968.0
7508	967.0
7509	969.0
7510	971.0
7511	968.0
7512	969.0
7513	973.0
7514	971.0
7515	972.0
7516	971.0
7517	967.0
7518	967.0
7519	969.0
7520	972.0
7521	971.0
7522	967.0
7523	967.0
7524	966.0
7525	969.0
7526	969.0
7527	971.0
7528	969.0
7529	963.0
7530	966.0
7531	967.0
7532	967.0
7533	969.0
7534	965.0
7535	964.0
7536	968.0
7537	968.0
7538	970.0
7539	968.0
7540	965.0
7541	964.0
7542	962.0
7543	961.0
7544	963.0
7545	963.0
7546	957.0
7547	957.0
7548	960.0
7549	960.0
7550	962.0
7551	960.0
7552	958.0
7553	958.0
7554	958.0
7555	958.0
7556	962.0
7557	961.0
7558	960.0
7559	957.0
7560	958.0
7561	961.0
7562	962.0
7563	961.0
7564	958.0
7565	956.0
7566	957.0
7567	956.0
7568	963.0
7569	960.0
7570	958.0
7571	956.0
7572	957.0
7573	960.0
7574	960.0
7575	958.0
7576	958.0
7577	957.0
7578	959.0
7579	961.0
7580	960.0
7581	961.0
7582	960.0
7583	962.0
7584	962.0
7585	962.0
7586	963.0
7587	964.0
7588	962.0
7589	962.0
7590	964.0
7591	967.0
7592	966.0
7593	969.0
7594	969.0
7595	969.0
7596	970.0
7597	973.0
7598	976.0
7599	975.0
7600	976.0
7601	975.0
7602	975.0
7603	980.0
7604	983.0
7605	986.0
7606	985.0
7607	986.0
7608	984.0
7609	985.0
7610	984.0
7611	982.0
7612	981.0
7613	980.0
7614	982.0
7615	982.0
7616	984.0
7617	982.0
7618	980.0
7619	981.0
7620	980.0
7621	977.0
7622	979.0
7623	979.0
7624	980.0
7625	984.0
7626	983.0
7627	978.0
7628	974.0
7629	972.0
7630	967.0
7631	964.0
7632	961.0
7633	958.0
7634	959.0
7635	957.0
7636	956.0
7637	955.0
7638	958.0
7639	960.0
7640	960.0
7641	959.0
7642	957.0
7643	957.0
7644	957.0
7645	958.0
7646	958.0
7647	957.0
7648	954.0
7649	953.0
7650	954.0
7651	955.0
7652	956.0
7653	954.0
7654	952.0
7655	946.0
7656	944.0
7657	937.0
7658	931.0
7659	928.0
7660	921.0
7661	910.0
7662	908.0
7663	920.0
7664	944.0
7665	974.0
7666	1005.0
7667	1044.0
7668	1103.0
7669	1156.0
7670	1190.0
7671	1200.0
7672	1176.0
7673	1116.0
7674	1038.0
7675	976.0
7676	939.0
7677	927.0
7678	928.0
7679	938.0
7680	944.0
7681	945.0
7682	944.0
7683	944.0
7684	945.0
7685	946.0
7686	949.0
7687	951.0
7688	950.0
7689	947.0
7690	945.0
7691	943.0
7692	946.0
7693	946.0
7694	947.0
7695	948.0
7696	945.0
7697	944.0
7698	948.0
7699	948.0
7700	949.0
7701	947.0
7702	945.0
7703	943.0
7704	944.0
7705	945.0
7706	945.0
7707	948.0
7708	945.0
7709	946.0
7710	945.0
7711	944.0
7712	946.0
7713	947.0
7714	946.0
7715	944.0
7716	946.0
7717	948.0
7718	948.0
7719	947.0
7720	948.0
7721	947.0
7722	950.0
7723	949.0
7724	950.0
7725	950.0
7726	949.0
7727	947.0
7728	947.0
7729	949.0
7730	947.0
7731	948.0
7732	944.0
7733	943.0
7734	944.0
7735	947.0
7736	948.0
7737	949.0
7738	945.0
7739	943.0
7740	943.0
7741	945.0
7742	946.0
7743	948.0
7744	947.0
7745	945.0
7746	949.0
7747	949.0
7748	948.0
7749	947.0
7750	949.0
7751	947.0
7752	947.0
7753	949.0
7754	948.0
7755	944.0
7756	943.0
7757	941.0
7758	942.0
7759	941.0
7760	944.0
7761	942.0
7762	942.0
7763	941.0
7764	941.0
7765	941.0
7766	941.0
7767	941.0
7768	939.0
7769	935.0
7770	938.0
7771	940.0
7772	941.0
7773	944.0
7774	942.0
7775	943.0
7776	947.0
7777	949.0
7778	954.0
7779	954.0
7780	954.0
7781	953.0
7782	957.0
7783	958.0
7784	963.0
7785	962.0
7786	959.0
7787	959.0
7788	961.0
7789	961.0
7790	962.0
7791	962.0
7792	963.0
7793	961.0
7794	960.0
7795	962.0
7796	963.0
7797	963.0
7798	963.0
7799	962.0
7800	965.0
7801	965.0
7802	966.0
7803	967.0
7804	967.0
7805	963.0
7806	963.0
7807	965.0
7808	966.0
7809	965.0
7810	965.0
7811	963.0
7812	963.0
7813	964.0
7814	964.0
7815	964.0
7816	960.0
7817	960.0
7818	959.0
7819	960.0
7820	960.0
7821	963.0
7822	959.0
7823	960.0
7824	961.0
7825	960.0
7826	962.0
7827	961.0
7828	962.0
7829	961.0
7830	961.0
7831	961.0
7832	963.0
7833	962.0
7834	961.0
7835	959.0
7836	958.0
7837	958.0
7838	959.0
7839	959.0
7840	958.0
7841	954.0
7842	954.0
7843	958.0
7844	959.0
7845	958.0
7846	954.0
7847	952.0
7848	954.0
7849	956.0
7850	958.0
7851	958.0
7852	958.0
7853	954.0
7854	954.0
7855	956.0
7856	959.0
7857	960.0
7858	958.0
7859	957.0
7860	954.0
7861	956.0
7862	955.0
7863	956.0
7864	958.0
7865	957.0
7866	956.0
7867	960.0
7868	959.0
7869	958.0
7870	954.0
7871	954.0
7872	957.0
7873	960.0
7874	962.0
7875	963.0
7876	965.0
7877	965.0
7878	969.0
7879	970.0
7880	973.0
7881	971.0
7882	974.0
7883	974.0
7884	974.0
7885	979.0
7886	980.0
7887	980.0
7888	978.0
7889	974.0
7890	974.0
7891	974.0
7892	977.0
7893	978.0
7894	975.0
7895	976.0
7896	977.0
7897	977.0
7898	978.0
7899	973.0
7900	972.0
7901	969.0
7902	971.0
7903	973.0
7904	978.0
7905	979.0
7906	976.0
7907	970.0
7908	967.0
7909	965.0
7910	963.0
7911	960.0
7912	953.0
7913	951.0
7914	952.0
7915	951.0
7916	953.0
7917	953.0
7918	952.0
7919	951.0
7920	951.0
7921	953.0
7922	955.0
7923	953.0
7924	950.0
7925	947.0
7926	950.0
7927	954.0
7928	954.0
7929	955.0
7930	952.0
7931	950.0
7932	950.0
7933	952.0
7934	955.0
7935	952.0
7936	951.0
7937	947.0
7938	946.0
7939	943.0
7940	938.0
7941	934.0
7942	930.0
7943	921.0
7944	914.0
7945	911.0
7946	923.0
7947	940.0
7948	965.0
7949	998.0
7950	1040.0
7951	1096.0
7952	1148.0
7953	1191.0
7954	1208.0
7955	1190.0
7956	1133.0
7957	1056.0
7958	988.0
7959	945.0
7960	926.0
7961	921.0
7962	930.0
7963	939.0
7964	942.0
7965	942.0
7966	941.0
7967	942.0
7968	943.0
7969	945.0
7970	945.0
7971	945.0
7972	943.0
7973	942.0
7974	944.0
7975	943.0
7976	945.0
7977	944.0
7978	942.0
7979	940.0
7980	941.0
7981	941.0
7982	943.0
7983	942.0
7984	938.0
7985	935.0
7986	935.0
7987	939.0
7988	941.0
7989	940.0
7990	940.0
7991	939.0
7992	940.0
7993	939.0
7994	942.0
7995	941.0
7996	937.0
7997	936.0
7998	937.0
7999	941.0
8000	941.0
8001	942.0
8002	942.0
8003	940.0
8004	938.0
8005	937.0
8006	939.0
8007	940.0
8008	940.0
8009	939.0
8010	939.0
8011	939.0
8012	940.0
8013	939.0
8014	939.0
8015	939.0
8016	940.0
8017	941.0
8018	941.0
8019	941.0
8020	940.0
8021	938.0
8022	939.0
8023	940.0
8024	941.0
8025	940.0
8026	940.0
8027	938.0
8028	940.0
8029	940.0
8030	942.0
8031	943.0
8032	939.0
8033	937.0
8034	936.0
8035	940.0
8036	941.0
8037	938.0
8038	936.0
8039	934.0
8040	934.0
8041	935.0
8042	935.0
8043	935.0
8044	931.0
8045	929.0
8046	926.0
8047	928.0
8048	929.0
8049	928.0
8050	927.0
8051	926.0
8052	927.0
8053	929.0
8054	933.0
8055	931.0
8056	932.0
8057	930.0
8058	933.0
8059	934.0
8060	937.0
8061	938.0
8062	938.0
8063	940.0
8064	941.0
8065	946.0
8066	947.0
8067	949.0
8068	949.0
8069	949.0
8070	952.0
8071	955.0
8072	957.0
8073	958.0
8074	955.0
8075	956.0
8076	957.0
8077	958.0
8078	959.0
8079	960.0
8080	958.0
8081	957.0
8082	959.0
8083	960.0
8084	962.0
8085	963.0
8086	959.0
8087	958.0
8088	959.0
8089	960.0
8090	963.0
8091	960.0
8092	960.0
8093	956.0
8094	959.0
8095	959.0
8096	958.0
8097	958.0
8098	955.0
8099	953.0
8100	954.0
8101	958.0
8102	959.0
8103	957.0
8104	957.0
8105	952.0
8106	954.0
8107	955.0
8108	953.0
8109	952.0
8110	954.0
8111	950.0
8112	954.0
8113	953.0
8114	954.0
8115	954.0
8116	954.0
8117	951.0
8118	953.0
8119	952.0
8120	954.0
8121	952.0
8122	951.0
8123	949.0
8124	951.0
8125	949.0
8126	951.0
8127	948.0
8128	948.0
8129	945.0
8130	947.0
8131	949.0
8132	950.0
8133	949.0
8134	949.0
8135	947.0
8136	949.0
8137	949.0
8138	952.0
8139	950.0
8140	949.0
8141	948.0
8142	949.0
8143	951.0
8144	952.0
8145	952.0
8146	951.0
8147	948.0
8148	948.0
8149	949.0
8150	953.0
8151	951.0
8152	950.0
8153	947.0
8154	949.0
8155	952.0
8156	951.0
8157	951.0
8158	948.0
8159	948.0
8160	950.0
8161	952.0
8162	952.0
8163	954.0
8164	952.0
8165	951.0
8166	954.0
8167	955.0
8168	957.0
8169	959.0
8170	960.0
8171	958.0
8172	960.0
8173	964.0
8174	964.0
8175	965.0
8176	963.0
8177	965.0
8178	967.0
8179	970.0
8180	970.0
8181	973.0
8182	971.0
8183	970.0
8184	969.0
8185	971.0
8186	969.0
8187	970.0
8188	967.0
8189	965.0
8190	965.0
8191	967.0
8192	969.0
8193	968.0
8194	964.0
8195	966.0
8196	967.0
8197	973.0
8198	976.0
8199	970.0
8200	964.0
8201	956.0
8202	956.0
8203	954.0
8204	952.0
8205	948.0
8206	946.0
8207	943.0
8208	944.0
8209	947.0
8210	947.0
8211	947.0
8212	943.0
8213	942.0
8214	943.0
8215	946.0
8216	944.0
8217	945.0
8218	941.0
8219	941.0
8220	943.0
8221	945.0
8222	946.0
8223	946.0
8224	943.0
8225	941.0
8226	941.0
8227	944.0
8228	943.0
8229	938.0
8230	928.0
8231	919.0
8232	914.0
8233	910.0
8234	905.0
8235	895.0
8236	896.0
8237	910.0
8238	936.0
8239	957.0
8240	974.0
8241	994.0
8242	1021.0
8243	1056.0
8244	1106.0
8245	1157.0
8246	1195.0
8247	1215.0
8248	1206.0
8249	1153.0
8250	1067.0
8251	985.0
8252	935.0
8253	916.0
8254	922.0
8255	927.0
8256	937.0
8257	935.0
8258	936.0
8259	936.0
8260	936.0
8261	934.0
8262	933.0
8263	933.0
8264	934.0
8265	933.0
8266	932.0
8267	930.0
8268	931.0
8269	934.0
8270	936.0
8271	934.0
8272	935.0
8273	932.0
8274	932.0
8275	936.0
8276	935.0
8277	935.0
8278	934.0
8279	933.0
8280	934.0
8281	933.0
8282	937.0
8283	933.0
8284	934.0
8285	933.0
8286	933.0
8287	935.0
8288	936.0
8289	937.0
8290	937.0
8291	934.0
8292	935.0
8293	938.0
8294	936.0
8295	934.0
8296	934.0
8297	933.0
8298	932.0
8299	936.0
8300	937.0
8301	935.0
8302	933.0
8303	932.0
8304	933.0
8305	936.0
8306	935.0
8307	936.0
8308	934.0
8309	931.0
8310	934.0
8311	933.0
8312	936.0
8313	936.0
8314	934.0
8315	929.0
8316	933.0
8317	934.0
8318	934.0
8319	936.0
8320	936.0
8321	933.0
8322	936.0
8323	936.0
8324	937.0
8325	936.0
8326	935.0
8327	933.0
8328	934.0
8329	936.0
8330	937.0
8331	934.0
8332	935.0
8333	933.0
8334	934.0
8335	935.0
8336	935.0
8337	933.0
8338	930.0
8339	930.0
8340	928.0
8341	931.0
8342	933.0
8343	933.0
8344	931.0
8345	930.0
8346	930.0
8347	933.0
8348	933.0
8349	932.0
8350	934.0
8351	933.0
8352	935.0
8353	937.0
8354	942.0
8355	940.0
8356	940.0
8357	939.0
8358	942.0
8359	946.0
8360	950.0
8361	950.0
8362	949.0
8363	948.0
8364	952.0
8365	954.0
8366	954.0
8367	957.0
8368	956.0
8369	953.0
8370	953.0
8371	956.0
8372	958.0
8373	955.0
8374	954.0
8375	955.0
8376	955.0
8377	958.0
8378	961.0
8379	959.0
8380	956.0
8381	956.0
8382	956.0
8383	956.0
8384	957.0
8385	955.0
8386	954.0
8387	950.0
8388	954.0
8389	955.0
8390	957.0
8391	953.0
8392	951.0
8393	952.0
8394	951.0
8395	952.0
8396	954.0
8397	953.0
8398	953.0
8399	949.0
8400	949.0
8401	950.0
8402	953.0
8403	953.0
8404	949.0
8405	949.0
8406	947.0
8407	951.0
8408	952.0
8409	951.0
8410	946.0
8411	946.0
8412	947.0
8413	948.0
8414	947.0
8415	946.0
8416	946.0
8417	943.0
8418	946.0
8419	945.0
8420	946.0
8421	945.0
8422	942.0
8423	941.0
8424	941.0
8425	943.0
8426	945.0
8427	943.0
8428	941.0
8429	940.0
8430	942.0
8431	940.0
8432	944.0
8433	944.0
8434	943.0
8435	941.0
8436	940.0
8437	944.0
8438	945.0
8439	947.0
8440	943.0
8441	942.0
8442	942.0
8443	943.0
8444	945.0
8445	943.0
8446	942.0
8447	942.0
8448	941.0
8449	941.0
8450	943.0
8451	945.0
8452	943.0
8453	942.0
8454	942.0
8455	944.0
8456	945.0
8457	945.0
8458	945.0
8459	943.0
8460	946.0
8461	950.0
8462	951.0
8463	953.0
8464	953.0
8465	953.0
8466	954.0
8467	956.0
8468	958.0
8469	959.0
8470	956.0
8471	955.0
8472	955.0
8473	959.0
8474	964.0
8475	963.0
8476	963.0
8477	960.0
8478	964.0
8479	961.0
8480	965.0
8481	963.0
8482	960.0
8483	958.0
8484	960.0
8485	964.0
8486	965.0
8487	962.0
8488	959.0
8489	960.0
8490	964.0
8491	968.0
8492	965.0
8493	958.0
8494	951.0
8495	947.0
8496	946.0
8497	945.0
8498	945.0
8499	942.0
8500	940.0
8501	936.0
8502	938.0
8503	940.0
8504	941.0
8505	942.0
8506	938.0
8507	937.0
8508	938.0
8509	938.0
8510	940.0
8511	940.0
8512	936.0
8513	935.0
8514	938.0
8515	938.0
8516	939.0
8517	938.0
8518	938.0
8519	935.0
8520	936.0
8521	933.0
8522	938.0
8523	936.0
8524	933.0
8525	928.0
8526	922.0
8527	915.0
8528	911.0
8529	908.0
8530	897.0
8531	891.0
8532	898.0
8533	922.0
8534	953.0
8535	984.0
8536	1019.0
8537	1072.0
8538	1132.0
8539	1175.0
8540	1193.0
8541	1183.0
8542	1134.0
8543	1048.0
8544	967.0
8545	920.0
8546	907.0
8547	912.0
8548	920.0
8549	924.0
8550	930.0
8551	929.0
8552	930.0
8553	932.0
8554	928.0
8555	927.0
8556	927.0
8557	930.0
8558	931.0
8559	929.0
8560	928.0
8561	926.0
8562	927.0
8563	929.0
8564	930.0
8565	929.0
8566	926.0
8567	925.0
8568	925.0
8569	925.0
8570	928.0
8571	926.0
8572	927.0
8573	925.0
8574	926.0
8575	927.0
8576	928.0
8577	929.0
8578	927.0
8579	926.0
8580	927.0
8581	928.0
8582	929.0
8583	927.0
8584	927.0
8585	922.0
8586	925.0
8587	926.0
8588	927.0
8589	929.0
8590	929.0
8591	925.0
8592	929.0
8593	929.0
8594	929.0
8595	930.0
8596	925.0
8597	925.0
8598	925.0
8599	926.0
8600	930.0
8601	927.0
8602	925.0
8603	923.0
8604	925.0
8605	926.0
8606	926.0
8607	928.0
8608	926.0
8609	924.0
8610	925.0
8611	926.0
8612	929.0
8613	928.0
8614	926.0
8615	924.0
8616	928.0
8617	927.0
8618	929.0
8619	928.0
8620	928.0
8621	928.0
8622	930.0
8623	931.0
8624	932.0
8625	929.0
8626	929.0
8627	928.0
8628	926.0
8629	928.0
8630	930.0
8631	928.0
8632	925.0
8633	923.0
8634	923.0
8635	927.0
8636	927.0
8637	927.0
8638	925.0
8639	923.0
8640	923.0
8641	926.0
8642	927.0
8643	924.0
8644	926.0
8645	924.0
8646	928.0
8647	930.0
8648	935.0
8649	934.0
8650	934.0
8651	934.0
8652	939.0
8653	943.0
8654	947.0
8655	947.0
8656	945.0
8657	946.0
8658	947.0
8659	949.0
8660	950.0
8661	949.0
8662	947.0
8663	946.0
8664	946.0
8665	947.0
8666	950.0
8667	950.0
8668	946.0
8669	947.0
8670	947.0
8671	947.0
8672	949.0
8673	949.0
8674	948.0
8675	946.0
8676	950.0
8677	948.0
8678	951.0
8679	950.0
8680	949.0
8681	946.0
8682	948.0
8683	951.0
8684	951.0
8685	950.0
8686	949.0
8687	945.0
8688	946.0
8689	946.0
8690	948.0
8691	946.0
8692	943.0
8693	941.0
8694	941.0
8695	942.0
8696	945.0
8697	945.0
8698	942.0
8699	940.0
8700	942.0
8701	941.0
8702	944.0
8703	940.0
8704	939.0
8705	938.0
8706	938.0
8707	939.0
8708	942.0
8709	942.0
8710	942.0
8711	939.0
8712	939.0
8713	942.0
8714	942.0
8715	940.0
8716	940.0
8717	935.0
8718	934.0
8719	937.0
8720	938.0
8721	938.0
8722	936.0
8723	934.0
8724	935.0
8725	936.0
8726	940.0
8727	940.0
8728	938.0
8729	935.0
8730	935.0
8731	937.0
8732	939.0
8733	939.0
8734	935.0
8735	934.0
8736	935.0
8737	937.0
8738	939.0
8739	940.0
8740	938.0
8741	938.0
8742	938.0
8743	940.0
8744	943.0
8745	941.0
8746	940.0
8747	939.0
8748	939.0
8749	940.0
8750	939.0
8751	940.0
8752	939.0
8753	936.0
8754	936.0
8755	939.0
8756	940.0
8757	940.0
8758	941.0
8759	939.0
8760	944.0
8761	948.0
8762	951.0
8763	950.0
8764	950.0
8765	951.0
8766	953.0
8767	955.0
8768	958.0
8769	960.0
8770	960.0
8771	958.0
8772	959.0
8773	961.0
8774	961.0
8775	961.0
8776	959.0
8777	956.0
8778	955.0
8779	957.0
8780	959.0
8781	957.0
8782	953.0
8783	948.0
8784	952.0
8785	955.0
8786	963.0
8787	965.0
8788	961.0
8789	957.0
8790	951.0
8791	950.0
8792	949.0
8793	947.0
8794	943.0
8795	938.0
8796	938.0
8797	938.0
8798	938.0
8799	937.0
8800	934.0
8801	932.0
8802	932.0
8803	932.0
8804	933.0
8805	934.0
8806	934.0
8807	931.0
8808	930.0
8809	930.0
8810	932.0
8811	929.0
8812	928.0
8813	926.0
8814	928.0
8815	931.0
8816	931.0
8817	928.0
8818	927.0
8819	925.0
8820	925.0
8821	926.0
8822	926.0
8823	919.0
8824	913.0
8825	904.0
8826	902.0
8827	900.0
8828	893.0
8829	888.0
8830	893.0
8831	909.0
8832	935.0
8833	962.0
8834	998.0
8835	1049.0
8836	1103.0
8837	1144.0
8838	1169.0
8839	1167.0
8840	1130.0
8841	1061.0
8842	985.0
8843	933.0
8844	906.0
8845	901.0
8846	907.0
8847	915.0
8848	917.0
8849	917.0
8850	917.0
8851	919.0
8852	923.0
8853	921.0
8854	923.0
8855	921.0
8856	921.0
8857	926.0
8858	925.0
8859	924.0
8860	926.0
8861	920.0
8862	922.0
8863	920.0
8864	923.0
8865	923.0
8866	923.0
8867	921.0
8868	921.0
8869	924.0
8870	922.0
8871	921.0
8872	919.0
8873	918.0
8874	919.0
8875	917.0
8876	920.0
8877	919.0
8878	920.0
8879	918.0
8880	920.0
8881	920.0
8882	922.0
8883	921.0
8884	922.0
8885	918.0
8886	918.0
8887	920.0
8888	922.0
8889	923.0
8890	919.0
8891	918.0
8892	919.0
8893	922.0
8894	925.0
8895	924.0
8896	922.0
8897	920.0
8898	920.0
8899	921.0
8900	923.0
8901	924.0
8902	922.0
8903	920.0
8904	923.0
8905	921.0
8906	922.0
8907	920.0
8908	923.0
8909	923.0
8910	921.0
8911	919.0
8912	924.0
8913	925.0
8914	925.0
8915	923.0
8916	925.0
8917	926.0
8918	929.0
8919	926.0
8920	925.0
8921	922.0
8922	923.0
8923	924.0
8924	924.0
8925	924.0
8926	923.0
8927	921.0
8928	923.0
8929	923.0
8930	921.0
8931	922.0
8932	919.0
8933	917.0
8934	917.0
8935	916.0
8936	920.0
8937	916.0
8938	916.0
8939	912.0
8940	914.0
8941	916.0
8942	915.0
8943	916.0
8944	915.0
8945	914.0
8946	913.0
8947	918.0
8948	920.0
8949	921.0
8950	924.0
8951	923.0
8952	923.0
8953	927.0
8954	931.0
8955	930.0
8956	932.0
8957	932.0
8958	933.0
8959	937.0
8960	938.0
8961	939.0
8962	938.0
8963	936.0
8964	936.0
8965	937.0
8966	942.0
8967	942.0
8968	941.0
8969	940.0
8970	942.0
8971	944.0
8972	945.0
8973	946.0
8974	943.0
8975	942.0
8976	943.0
8977	946.0
8978	944.0
8979	943.0
8980	941.0
8981	941.0
8982	941.0
8983	942.0
8984	944.0
8985	942.0
8986	942.0
8987	939.0
8988	941.0
8989	945.0
8990	943.0
8991	944.0
8992	941.0
8993	940.0
8994	939.0
8995	942.0
8996	944.0
8997	943.0
8998	940.0
8999	940.0
9000	941.0
9001	942.0
9002	942.0
9003	940.0
9004	939.0
9005	936.0
9006	937.0
9007	938.0
9008	938.0
9009	938.0
9010	938.0
9011	935.0
9012	934.0
9013	937.0
9014	939.0
9015	940.0
9016	939.0
9017	938.0
9018	933.0
9019	934.0
9020	936.0
9021	938.0
9022	936.0
9023	936.0
9024	936.0
9025	938.0
9026	940.0
9027	941.0
9028	939.0
9029	934.0
9030	933.0
9031	934.0
9032	935.0
9033	937.0
9034	937.0
9035	934.0
9036	934.0
9037	935.0
9038	938.0
9039	939.0
9040	934.0
9041	932.0
9042	935.0
9043	936.0
9044	939.0
9045	940.0
9046	935.0
9047	934.0
9048	937.0
9049	939.0
9050	942.0
9051	940.0
9052	936.0
9053	935.0
9054	937.0
9055	938.0
9056	938.0
9057	939.0
9058	938.0
9059	939.0
9060	942.0
9061	942.0
9062	948.0
9063	951.0
9064	950.0
9065	944.0
9066	946.0
9067	950.0
9068	953.0
9069	954.0
9070	952.0
9071	948.0
9072	950.0
9073	953.0
9074	958.0
9075	959.0
9076	959.0
9077	958.0
9078	960.0
9079	960.0
9080	961.0
9081	960.0
9082	956.0
9083	953.0
9084	954.0
9085	956.0
9086	956.0
9087	952.0
9088	950.0
9089	947.0
9090	950.0
9091	956.0
9092	959.0
9093	957.0
9094	948.0
9095	946.0
9096	942.0
9097	940.0
9098	940.0
9099	936.0
9100	934.0
9101	932.0
9102	935.0
9103	933.0
9104	937.0
9105	935.0
9106	934.0
9107	932.0
9108	931.0
9109	932.0
9110	933.0
9111	933.0
9112	931.0
9113	928.0
9114	931.0
9115	933.0
9116	933.0
9117	930.0
9118	930.0
9119	929.0
9120	927.0
9121	930.0
9122	928.0
9123	932.0
9124	928.0
9125	927.0
9126	927.0
9127	925.0
9128	919.0
9129	916.0
9130	910.0
9131	905.0
9132	897.0
9133	890.0
9134	898.0
9135	916.0
9136	941.0
9137	968.0
9138	1008.0
9139	1057.0
9140	1111.0
9141	1159.0
9142	1184.0
9143	1190.0
9144	1156.0
9145	1093.0
9146	1016.0
9147	954.0
9148	918.0
9149	903.0
9150	899.0
9151	906.0
9152	915.0
9153	920.0
9154	922.0
9155	918.0
9156	921.0
9157	924.0
9158	925.0
9159	925.0
9160	923.0
9161	923.0
9162	923.0
9163	925.0
9164	924.0
9165	924.0
9166	924.0
9167	920.0
9168	923.0
9169	925.0
9170	925.0
9171	924.0
9172	922.0
9173	921.0
9174	922.0
9175	924.0
9176	928.0
9177	924.0
9178	923.0
9179	920.0
9180	921.0
9181	923.0
9182	926.0
9183	922.0
9184	923.0
9185	924.0
9186	923.0
9187	926.0
9188	928.0
9189	926.0
9190	927.0
9191	924.0
9192	924.0
9193	926.0
9194	927.0
9195	925.0
9196	923.0
9197	923.0
9198	922.0
9199	924.0
9200	926.0
9201	926.0
9202	924.0
9203	922.0
9204	921.0
9205	925.0
9206	925.0
9207	926.0
9208	921.0
9209	922.0
9210	923.0
9211	925.0
9212	925.0
9213	927.0
9214	926.0
9215	922.0
9216	925.0
9217	927.0
9218	928.0
9219	928.0
9220	925.0
9221	922.0
9222	920.0
9223	922.0
9224	923.0
9225	921.0
9226	920.0
9227	916.0
9228	916.0
9229	920.0
9230	918.0
9231	917.0
9232	916.0
9233	913.0
9234	913.0
9235	916.0
9236	916.0
9237	915.0
9238	916.0
9239	914.0
9240	916.0
9241	918.0
9242	918.0
9243	919.0
9244	919.0
9245	920.0
9246	922.0
9247	925.0
9248	928.0
9249	931.0
9250	930.0
9251	931.0
9252	933.0
9253	936.0
9254	941.0
9255	941.0
9256	942.0
9257	942.0
9258	946.0
9259	946.0
9260	948.0
9261	948.0
9262	946.0
9263	945.0
9264	947.0
9265	948.0
9266	951.0
9267	949.0
9268	947.0
9269	949.0
9270	948.0
9271	950.0
9272	951.0
9273	950.0
9274	948.0
9275	944.0
9276	945.0
9277	946.0
9278	947.0
9279	945.0
9280	944.0
9281	942.0
9282	942.0
9283	944.0
9284	946.0
9285	945.0
9286	945.0
9287	943.0
9288	943.0
9289	945.0
9290	947.0
9291	944.0
9292	942.0
9293	942.0
9294	942.0
9295	944.0
9296	947.0
9297	945.0
9298	945.0
9299	944.0
9300	943.0
9301	946.0
9302	947.0
9303	943.0
9304	941.0
9305	940.0
9306	941.0
9307	942.0
9308	942.0
9309	943.0
9310	940.0
9311	937.0
9312	938.0
9313	938.0
9314	940.0
9315	942.0
9316	939.0
9317	936.0
9318	935.0
9319	941.0
9320	941.0
9321	940.0
9322	940.0
9323	935.0
9324	939.0
9325	942.0
9326	941.0
9327	940.0
9328	942.0
9329	940.0
9330	943.0
9331	944.0
9332	946.0
9333	946.0
9334	945.0
9335	942.0
9336	943.0
9337	945.0
9338	945.0
9339	945.0
9340	943.0
9341	940.0
9342	940.0
9343	943.0
9344	945.0
9345	946.0
9346	942.0
9347	941.0
9348	941.0
9349	942.0
9350	946.0
9351	946.0
9352	944.0
9353	945.0
9354	945.0
9355	949.0
9356	950.0
9357	955.0
9358	954.0
9359	956.0
9360	958.0
9361	960.0
9362	964.0
9363	963.0
9364	960.0
9365	960.0
9366	962.0
9367	967.0
9368	969.0
9369	968.0
9370	966.0
9371	965.0
9372	963.0
9373	964.0
9374	964.0
9375	962.0
9376	961.0
9377	959.0
9378	963.0
9379	963.0
9380	961.0
9381	961.0
9382	962.0
9383	963.0
9384	969.0
9385	973.0
9386	972.0
9387	965.0
9388	959.0
9389	956.0
9390	954.0
9391	954.0
9392	952.0
9393	949.0
9394	948.0
9395	943.0
9396	944.0
9397	943.0
9398	946.0
9399	943.0
9400	941.0
9401	939.0
9402	940.0
9403	941.0
9404	940.0
9405	942.0
9406	939.0
9407	939.0
9408	938.0
9409	942.0
9410	942.0
9411	944.0
9412	940.0
9413	938.0
9414	939.0
9415	941.0
9416	938.0
9417	934.0
9418	926.0
9419	916.0
9420	914.0
9421	910.0
9422	905.0
9423	903.0
9424	913.0
9425	939.0
9426	973.0
9427	1008.0
9428	1056.0
9429	1113.0
9430	1165.0
9431	1201.0
9432	1225.0
9433	1233.0
9434	1219.0
9435	1172.0
9436	1094.0
9437	1010.0
9438	943.0
9439	914.0
9440	912.0
9441	917.0
9442	924.0
9443	933.0
9444	933.0
9445	935.0
9446	935.0
9447	936.0
9448	933.0
9449	931.0
9450	931.0
9451	931.0
9452	931.0
9453	931.0
9454	928.0
9455	927.0
9456	928.0
9457	930.0
9458	930.0
9459	932.0
9460	932.0
9461	929.0
9462	929.0
9463	930.0
9464	933.0
9465	933.0
9466	932.0
9467	932.0
9468	932.0
9469	933.0
9470	934.0
9471	934.0
9472	933.0
9473	929.0
9474	931.0
9475	931.0
9476	934.0
9477	934.0
9478	933.0
9479	928.0
9480	930.0
9481	935.0
9482	937.0
9483	936.0
9484	934.0
9485	932.0
9486	932.0
9487	935.0
9488	938.0
9489	939.0
9490	934.0
9491	932.0
9492	933.0
9493	934.0
9494	936.0
9495	935.0
9496	936.0
9497	934.0
9498	935.0
9499	936.0
9500	937.0
9501	934.0
9502	934.0
9503	933.0
9504	933.0
9505	932.0
9506	934.0
9507	937.0
9508	931.0
9509	931.0
9510	934.0
9511	937.0
9512	938.0
9513	937.0
9514	934.0
9515	931.0
9516	931.0
9517	932.0
9518	933.0
9519	933.0
9520	932.0
9521	930.0
9522	930.0
9523	932.0
9524	934.0
9525	933.0
9526	932.0
9527	929.0
9528	932.0
9529	932.0
9530	934.0
9531	934.0
9532	935.0
9533	935.0
9534	937.0
9535	939.0
9536	940.0
9537	941.0
9538	945.0
9539	943.0
9540	947.0
9541	947.0
9542	950.0
9543	952.0
9544	952.0
9545	952.0
9546	953.0
9547	953.0
9548	957.0
9549	957.0
9550	955.0
9551	956.0
9552	957.0
9553	960.0
9554	960.0
9555	959.0
9556	959.0
9557	957.0
9558	958.0
9559	959.0
9560	959.0
9561	957.0
9562	954.0
9563	952.0
9564	951.0
9565	955.0
9566	957.0
9567	954.0
9568	954.0
9569	953.0
9570	952.0
9571	955.0
9572	958.0
9573	958.0
9574	955.0
9575	953.0
9576	953.0
9577	956.0
9578	955.0
9579	954.0
9580	952.0
9581	950.0
9582	949.0
9583	952.0
9584	951.0
9585	952.0
9586	951.0
9587	948.0
9588	949.0
9589	951.0
9590	951.0
9591	951.0
9592	949.0
9593	946.0
9594	947.0
9595	949.0
9596	950.0
9597	950.0
9598	949.0
9599	946.0
9600	948.0
9601	950.0
9602	955.0
9603	952.0
9604	950.0
9605	947.0
9606	949.0
9607	949.0
9608	950.0
9609	950.0
9610	945.0
9611	944.0
9612	947.0
9613	946.0
9614	948.0
9615	947.0
9616	948.0
9617	945.0
9618	946.0
9619	947.0
9620	949.0
9621	949.0
9622	948.0
9623	946.0
9624	948.0
9625	949.0
9626	949.0
9627	951.0
9628	950.0
9629	950.0
9630	953.0
9631	952.0
9632	954.0
9633	957.0
9634	954.0
9635	954.0
9636	956.0
9637	960.0
9638	965.0
9639	965.0
9640	963.0
9641	961.0
9642	964.0
9643	967.0
9644	967.0
9645	967.0
9646	967.0
9647	970.0
9648	969.0
9649	972.0
9650	975.0
9651	974.0
9652	972.0
9653	970.0
9654	968.0
9655	968.0
9656	971.0
9657	971.0
9658	971.0
9659	969.0
9660	970.0
9661	973.0
9662	976.0
9663	978.0
9664	976.0
9665	969.0
9666	962.0
9667	963.0
9668	960.0
9669	958.0
9670	954.0
9671	950.0
9672	949.0
9673	951.0
9674	950.0
9675	950.0
9676	950.0
9677	948.0
9678	947.0
9679	948.0
9680	950.0
9681	952.0
9682	950.0
9683	947.0
9684	949.0
9685	949.0
9686	948.0
9687	948.0
9688	945.0
9689	944.0
9690	944.0
9691	946.0
9692	946.0
9693	946.0
9694	945.0
9695	941.0
9696	939.0
9697	937.0
9698	929.0
9699	924.0
9700	919.0
9701	910.0
9702	903.0
9703	905.0
9704	924.0
9705	952.0
9706	978.0
9707	1013.0
9708	1064.0
9709	1124.0
9710	1170.0
9711	1195.0
9712	1191.0
9713	1148.0
9714	1069.0
9715	992.0
9716	941.0
9717	919.0
9718	921.0
9719	930.0
9720	937.0
9721	941.0
9722	941.0
9723	942.0
9724	943.0
9725	941.0
9726	940.0
9727	941.0
9728	944.0
9729	941.0
9730	940.0
9731	938.0
9732	940.0
9733	943.0
9734	942.0
9735	944.0
9736	941.0
9737	938.0
9738	940.0
9739	939.0
9740	943.0
9741	942.0
9742	940.0
9743	937.0
9744	938.0
9745	939.0
9746	941.0
9747	940.0
9748	939.0
9749	937.0
9750	939.0
9751	940.0
9752	942.0
9753	942.0
9754	940.0
9755	939.0
9756	941.0
9757	943.0
9758	944.0
9759	943.0
9760	944.0
9761	942.0
9762	940.0
9763	943.0
9764	945.0
9765	941.0
9766	942.0
9767	938.0
9768	939.0
9769	941.0
9770	941.0
9771	942.0
9772	940.0
9773	938.0
9774	939.0
9775	942.0
9776	942.0
9777	944.0
9778	943.0
9779	941.0
9780	940.0
9781	943.0
9782	944.0
9783	946.0
9784	944.0
9785	944.0
9786	943.0
9787	945.0
9788	946.0
9789	943.0
9790	944.0
9791	938.0
9792	938.0
9793	940.0
9794	941.0
9795	943.0
9796	939.0
9797	937.0
9798	938.0
9799	939.0
9800	941.0
9801	939.0
9802	939.0
9803	936.0
9804	937.0
9805	941.0
9806	941.0
9807	939.0
9808	938.0
9809	937.0
9810	942.0
9811	945.0
9812	947.0
9813	949.0
9814	948.0
9815	947.0
9816	948.0
9817	951.0
9818	955.0
9819	955.0
9820	952.0
9821	951.0
9822	955.0
9823	956.0
9824	959.0
9825	959.0
9826	958.0
9827	956.0
9828	957.0
9829	959.0
9830	962.0
9831	963.0
9832	962.0
9833	957.0
9834	958.0
9835	960.0
9836	961.0
9837	962.0
9838	962.0
9839	961.0
9840	963.0
9841	963.0
9842	965.0
9843	964.0
9844	961.0
9845	958.0
9846	958.0
9847	961.0
9848	963.0
9849	959.0
9850	957.0
9851	957.0
9852	956.0
9853	957.0
9854	960.0
9855	956.0
9856	953.0
9857	954.0
9858	952.0
9859	954.0
9860	956.0
9861	957.0
9862	955.0
9863	952.0
9864	954.0
9865	954.0
9866	955.0
9867	955.0
9868	953.0
9869	951.0
9870	952.0
9871	952.0
9872	953.0
9873	952.0
9874	950.0
9875	949.0
9876	947.0
9877	949.0
9878	950.0
9879	948.0
9880	947.0
9881	947.0
9882	948.0
9883	948.0
9884	950.0
9885	950.0
9886	949.0
9887	950.0
9888	950.0
9889	952.0
9890	952.0
9891	953.0
9892	948.0
9893	944.0
9894	945.0
9895	946.0
9896	948.0
9897	948.0
9898	946.0
9899	947.0
9900	950.0
9901	949.0
9902	951.0
9903	952.0
9904	951.0
9905	948.0
9906	948.0
9907	950.0
9908	949.0
9909	948.0
9910	946.0
9911	945.0
9912	946.0
9913	953.0
9914	954.0
9915	952.0
9916	949.0
9917	947.0
9918	948.0
9919	949.0
9920	954.0
9921	953.0
9922	953.0
9923	953.0
9924	955.0
9925	958.0
9926	961.0
9927	962.0
9928	959.0
9929	961.0
9930	964.0
9931	967.0
9932	971.0
9933	973.0
9934	970.0
9935	971.0
9936	971.0
9937	973.0
9938	973.0
9939	971.0
9940	969.0
9941	966.0
9942	969.0
9943	969.0
9944	967.0
9945	965.0
9946	964.0
9947	966.0
9948	970.0
9949	969.0
9950	965.0
9951	962.0
9952	955.0
9953	951.0
9954	950.0
9955	946.0
9956	947.0
9957	945.0
9958	942.0
9959	941.0
9960	943.0
9961	945.0
9962	944.0
9963	943.0
9964	944.0
9965	943.0
9966	942.0
9967	946.0
9968	945.0
9969	945.0
9970	941.0
9971	938.0
9972	938.0
9973	941.0
9974	942.0
9975	943.0
9976	942.0
9977	942.0
9978	940.0
9979	942.0
9980	941.0
9981	939.0
9982	933.0
9983	924.0
9984	922.0
9985	920.0
9986	920.0
9987	910.0
9988	901.0
9989	893.0
9990	896.0
9991	910.0
9992	929.0
9993	952.0
9994	977.0
9995	1016.0
9996	1072.0
9997	1127.0
9998	1166.0
9999	1183.0
10000	1168.0
10001	1111.0
10002	1037.0
10003	974.0
10004	935.0
10005	917.0
10006	914.0
10007	922.0
10008	928.0
10009	934.0
10010	934.0
10011	935.0
10012	936.0
10013	933.0
10014	934.0
10015	934.0
10016	936.0
10017	936.0
10018	935.0
10019	934.0
10020	933.0
10021	935.0
10022	937.0
10023	938.0
10024	936.0
10025	933.0
10026	935.0
10027	935.0
10028	936.0
10029	937.0
10030	932.0
10031	932.0
10032	933.0
10033	931.0
10034	934.0
10035	935.0
10036	930.0
10037	927.0
10038	931.0
10039	932.0
10040	932.0
10041	934.0
10042	934.0
10043	930.0
10044	932.0
10045	933.0
10046	936.0
10047	937.0
10048	935.0
10049	934.0
10050	937.0
10051	936.0
10052	935.0
10053	935.0
10054	934.0
10055	934.0
10056	936.0
10057	937.0
10058	936.0
10059	935.0
10060	933.0
10061	929.0
10062	932.0
10063	934.0
10064	937.0
10065	936.0
10066	935.0
10067	933.0
10068	934.0
10069	937.0
10070	937.0
10071	934.0
10072	934.0
10073	932.0
10074	933.0
10075	936.0
10076	938.0
10077	939.0
10078	937.0
10079	932.0
10080	931.0
10081	935.0
10082	936.0
10083	936.0
10084	930.0
10085	928.0
10086	926.0
10087	928.0
10088	929.0
10089	927.0
10090	926.0
10091	925.0
10092	926.0
10093	926.0
10094	926.0
10095	925.0
10096	925.0
10097	922.0
10098	925.0
10099	925.0
10100	929.0
10101	929.0
10102	931.0
10103	929.0
10104	931.0
10105	938.0
10106	942.0
10107	943.0
10108	945.0
10109	943.0
10110	945.0
10111	950.0
10112	953.0
10113	951.0
10114	950.0
10115	950.0
10116	948.0
10117	950.0
10118	953.0
10119	952.0
10120	950.0
10121	950.0
10122	953.0
10123	956.0
10124	959.0
10125	959.0
10126	956.0
10127	955.0
10128	952.0
10129	955.0
10130	955.0
10131	953.0
10132	953.0
10133	951.0
10134	950.0
10135	951.0
10136	950.0
10137	950.0
10138	949.0
10139	949.0
10140	951.0
10141	952.0
10142	953.0
10143	953.0
10144	953.0
10145	949.0
10146	948.0
10147	947.0
10148	951.0
10149	951.0
10150	949.0
10151	948.0
10152	947.0
10153	947.0
10154	950.0
10155	948.0
10156	944.0
10157	942.0
10158	944.0
10159	947.0
10160	949.0
10161	948.0
10162	946.0
10163	942.0
10164	944.0
10165	945.0
10166	946.0
10167	946.0
10168	946.0
10169	944.0
10170	944.0
10171	946.0
10172	947.0
10173	946.0
10174	945.0
10175	945.0
10176	944.0
10177	944.0
10178	947.0
10179	946.0
10180	944.0
10181	944.0
10182	946.0
10183	948.0
10184	950.0
10185	950.0
10186	948.0
10187	943.0
10188	946.0
10189	946.0
10190	948.0
10191	948.0
10192	948.0
10193	946.0
10194	948.0
10195	948.0
10196	949.0
10197	948.0
10198	946.0
10199	942.0
10200	943.0
10201	945.0
10202	945.0
10203	947.0
10204	943.0
10205	943.0
10206	947.0
10207	950.0
10208	957.0
10209	959.0
10210	959.0
10211	955.0
10212	957.0
10213	959.0
10214	960.0
10215	960.0
10216	962.0
10217	962.0
10218	964.0
10219	966.0
10220	968.0
10221	967.0
10222	965.0
10223	963.0
10224	965.0
10225	966.0
10226	967.0
10227	966.0
10228	964.0
10229	961.0
10230	962.0
10231	962.0
10232	966.0
10233	969.0
10234	968.0
10235	964.0
10236	960.0
10237	956.0
10238	956.0
10239	950.0
10240	945.0
10241	940.0
10242	941.0
10243	939.0
10244	941.0
10245	942.0
10246	940.0
10247	939.0
10248	939.0
10249	938.0
10250	941.0
10251	942.0
10252	939.0
10253	936.0
10254	935.0
10255	937.0
10256	940.0
10257	942.0
10258	940.0
10259	937.0
10260	939.0
10261	939.0
10262	941.0
10263	940.0
10264	938.0
10265	937.0
10266	934.0
10267	930.0
10268	926.0
10269	920.0
10270	917.0
10271	913.0
10272	906.0
10273	901.0
10274	900.0
10275	913.0
10276	935.0
10277	959.0
10278	989.0
10279	1029.0
10280	1077.0
10281	1132.0
10282	1171.0
10283	1194.0
10284	1195.0
10285	1160.0
10286	1089.0
10287	1007.0
10288	946.0
10289	920.0
10290	913.0
10291	918.0
10292	926.0
10293	933.0
10294	933.0
10295	931.0
10296	931.0
10297	934.0
10298	936.0
10299	934.0
10300	935.0
10301	931.0
10302	936.0
10303	934.0
10304	937.0
10305	936.0
10306	934.0
10307	932.0
10308	930.0
10309	933.0
10310	933.0
10311	932.0
10312	929.0
10313	927.0
10314	929.0
10315	931.0
10316	933.0
10317	932.0
10318	932.0
10319	932.0
10320	932.0
10321	931.0
10322	934.0
10323	933.0
10324	932.0
10325	928.0
10326	930.0
10327	932.0
10328	931.0
10329	933.0
10330	932.0
10331	930.0
10332	933.0
10333	934.0
10334	933.0
10335	933.0
10336	933.0
10337	930.0
10338	928.0
10339	930.0
10340	933.0
10341	932.0
10342	930.0
10343	928.0
10344	930.0
10345	931.0
10346	933.0
10347	932.0
10348	932.0
10349	931.0
10350	930.0
10351	933.0
10352	935.0
10353	935.0
10354	934.0
10355	933.0
10356	934.0
10357	936.0
10358	939.0
10359	937.0
10360	936.0
10361	934.0
10362	933.0
10363	933.0
10364	934.0
10365	935.0
10366	932.0
10367	932.0
10368	930.0
10369	931.0
10370	932.0
10371	932.0
10372	929.0
10373	926.0
10374	928.0
10375	928.0
10376	929.0
10377	927.0
10378	926.0
10379	924.0
10380	926.0
10381	927.0
10382	926.0
10383	926.0
10384	928.0
10385	924.0
10386	924.0
10387	922.0
10388	928.0
10389	926.0
10390	926.0
10391	927.0
10392	929.0
10393	931.0
10394	935.0
10395	937.0
10396	939.0
10397	939.0
10398	940.0
10399	946.0
10400	948.0
10401	949.0
10402	950.0
10403	950.0
10404	950.0
10405	954.0
10406	957.0
10407	954.0
10408	954.0
10409	953.0
10410	957.0
10411	960.0
10412	960.0
10413	961.0
10414	959.0
10415	957.0
10416	958.0
10417	960.0
10418	960.0
10419	962.0
10420	958.0
10421	954.0
10422	955.0
10423	958.0
10424	958.0
10425	956.0
10426	956.0
10427	953.0
10428	953.0
10429	955.0
10430	957.0
10431	955.0
10432	954.0
10433	952.0
10434	954.0
10435	952.0
10436	954.0
10437	954.0
10438	954.0
10439	951.0
10440	950.0
10441	955.0
10442	958.0
10443	955.0
10444	954.0
10445	953.0
10446	953.0
10447	953.0
10448	956.0
10449	957.0
10450	951.0
10451	947.0
10452	947.0
10453	951.0
10454	951.0
10455	951.0
10456	951.0
10457	947.0
10458	945.0
10459	947.0
10460	949.0
10461	951.0
10462	948.0
10463	946.0
10464	949.0
10465	948.0
10466	951.0
10467	950.0
10468	950.0
10469	948.0
10470	948.0
10471	953.0
10472	951.0
10473	951.0
10474	950.0
10475	948.0
10476	949.0
10477	951.0
10478	951.0
10479	950.0
10480	950.0
10481	946.0
10482	947.0
10483	951.0
10484	952.0
10485	951.0
10486	949.0
10487	947.0
10488	946.0
10489	948.0
10490	950.0
10491	949.0
10492	946.0
10493	947.0
10494	947.0
10495	949.0
10496	950.0
10497	949.0
10498	947.0
10499	943.0
10500	947.0
10501	950.0
10502	950.0
10503	952.0
10504	949.0
10505	950.0
10506	949.0
10507	953.0
10508	956.0
10509	955.0
10510	956.0
10511	955.0
10512	959.0
10513	962.0
10514	963.0
10515	963.0
10516	964.0
10517	963.0
10518	964.0
10519	967.0
10520	971.0
10521	971.0
10522	970.0
10523	968.0
10524	969.0
10525	969.0
10526	971.0
10527	971.0
10528	969.0
10529	965.0
10530	966.0
10531	966.0
10532	970.0
10533	969.0
10534	967.0
10535	964.0
10536	965.0
10537	970.0
10538	976.0
10539	975.0
10540	972.0
10541	965.0
10542	962.0
10543	961.0
10544	959.0
10545	954.0
10546	951.0
10547	947.0
10548	948.0
10549	946.0
10550	950.0
10551	950.0
10552	949.0
10553	948.0
10554	946.0
10555	947.0
10556	946.0
10557	948.0
10558	946.0
10559	944.0
10560	943.0
10561	946.0
10562	947.0
10563	947.0
10564	945.0
10565	941.0
10566	943.0
10567	944.0
10568	947.0
10569	944.0
10570	944.0
10571	940.0
10572	940.0
10573	937.0
10574	934.0
10575	925.0
10576	920.0
10577	914.0
10578	913.0
10579	911.0
10580	908.0
10581	899.0
10582	892.0
10583	902.0
10584	923.0
10585	945.0
10586	976.0
10587	1007.0
10588	1047.0
10589	1101.0
10590	1156.0
10591	1197.0
10592	1215.0
10593	1206.0
10594	1156.0
10595	1078.0
10596	996.0
10597	939.0
10598	920.0
10599	921.0
10600	926.0
10601	931.0
10602	935.0
10603	938.0
10604	937.0
10605	937.0
10606	934.0
10607	933.0
10608	934.0
10609	934.0
10610	936.0
10611	935.0
10612	933.0
10613	932.0
10614	932.0
10615	934.0
10616	934.0
10617	935.0
10618	934.0
10619	931.0
10620	933.0
10621	936.0
10622	937.0
10623	937.0
10624	936.0
10625	932.0
10626	933.0
10627	937.0
10628	936.0
10629	933.0
10630	934.0
10631	932.0
10632	932.0
10633	934.0
10634	935.0
10635	936.0
10636	933.0
10637	931.0
10638	933.0
10639	935.0
10640	936.0
10641	937.0
10642	935.0
10643	933.0
10644	936.0
10645	939.0
10646	938.0
10647	938.0
10648	935.0
10649	934.0
10650	938.0
10651	937.0
10652	939.0
10653	938.0
10654	937.0
10655	934.0
10656	934.0
10657	934.0
10658	937.0
10659	934.0
10660	936.0
10661	933.0
10662	935.0
10663	936.0
10664	937.0
10665	934.0
10666	933.0
10667	933.0
10668	936.0
10669	936.0
10670	940.0
10671	940.0
10672	938.0
10673	935.0
10674	935.0
10675	939.0
10676	939.0
10677	940.0
10678	940.0
10679	936.0
10680	937.0
10681	938.0
10682	939.0
10683	937.0
10684	935.0
10685	932.0
10686	933.0
10687	935.0
10688	937.0
10689	937.0
10690	934.0
10691	933.0
10692	933.0
10693	935.0
10694	937.0
10695	934.0
10696	933.0
10697	935.0
10698	933.0
10699	936.0
10700	938.0
10701	941.0
10702	939.0
10703	938.0
10704	942.0
10705	945.0
10706	948.0
10707	951.0
10708	951.0
10709	950.0
10710	950.0
10711	954.0
10712	956.0
10713	957.0
10714	955.0
10715	953.0
10716	955.0
10717	956.0
10718	958.0
10719	956.0
10720	957.0
10721	953.0
10722	956.0
10723	957.0
10724	960.0
10725	959.0
10726	957.0
10727	953.0
10728	958.0
10729	959.0
10730	959.0
10731	959.0
10732	959.0
10733	954.0
10734	957.0
10735	959.0
10736	960.0
10737	959.0
10738	957.0
10739	957.0
10740	956.0
10741	959.0
10742	959.0
10743	958.0
10744	957.0
10745	955.0
10746	953.0
10747	956.0
10748	955.0
10749	956.0
10750	953.0
10751	952.0
10752	951.0
10753	952.0
10754	953.0
10755	953.0
10756	951.0
10757	950.0
10758	951.0
10759	951.0
10760	953.0
10761	953.0
10762	952.0
10763	950.0
10764	950.0
10765	950.0
10766	952.0
10767	951.0
10768	951.0
10769	947.0
10770	947.0
10771	947.0
10772	949.0
10773	948.0
10774	946.0
10775	944.0
10776	944.0
10777	947.0
10778	947.0
10779	947.0
10780	946.0
10781	944.0
10782	943.0
10783	946.0
10784	948.0
10785	948.0
10786	946.0
10787	943.0
10788	945.0
10789	946.0
10790	947.0
10791	948.0
10792	948.0
10793	946.0
10794	949.0
10795	951.0
10796	951.0
10797	949.0
10798	949.0
10799	947.0
10800	947.0
10801	947.0
10802	951.0
10803	949.0
10804	948.0
10805	946.0
10806	947.0
10807	949.0
10808	952.0
10809	950.0
10810	948.0
10811	946.0
10812	946.0
10813	949.0
10814	951.0
10815	949.0
10816	952.0
10817	950.0
10818	953.0
10819	960.0
10820	962.0
10821	964.0
10822	964.0
10823	962.0
10824	962.0
10825	967.0
10826	970.0
10827	973.0
10828	969.0
10829	969.0
10830	970.0
10831	969.0
10832	970.0
10833	968.0
10834	965.0
10835	962.0
10836	963.0
10837	965.0
10838	967.0
10839	967.0
10840	965.0
10841	961.0
10842	961.0
10843	962.0
10844	964.0
10845	966.0
10846	965.0
10847	967.0
10848	971.0
10849	971.0
10850	966.0
10851	963.0
10852	959.0
10853	953.0
10854	951.0
10855	949.0
10856	948.0
10857	947.0
10858	947.0
10859	943.0
10860	944.0
10861	947.0
10862	947.0
10863	945.0
10864	944.0
10865	940.0
10866	942.0
10867	943.0
10868	944.0
10869	943.0
10870	942.0
10871	939.0
10872	940.0
10873	940.0
10874	944.0
10875	943.0
10876	941.0
10877	938.0
10878	938.0
10879	937.0
10880	933.0
10881	925.0
10882	916.0
10883	912.0
10884	906.0
10885	898.0
10886	898.0
10887	911.0
10888	935.0
10889	959.0
10890	986.0
10891	1024.0
10892	1073.0
10893	1128.0
10894	1168.0
10895	1191.0
10896	1195.0
